Timestep (s),Sum Voltage (V),Carry Out Voltage (V),Sum Error Rate (Dimless),Carry Out Error Rate (Dimless),Energy Dissipation (J)
0,0.00691646174141851,2.49914987501304,0.00029331658409115224,0.0002129344499254282,2.61592370450898e-19
100,0.013731104162184659,2.498299978700465,0.00041686511278937743,0.0002227994587953308,5.193854886307148e-19
200,0.020445885945864314,2.4974503179194643,0.0005844024430130546,0.00023308682266964809,7.73517763552425e-19
300,0.027062785845729596,2.4966008995788407,0.0008085397631527602,0.00024381286007668646,1.0241219297128462e-18
400,0.033583731911241255,2.4957517306292845,0.0011045133812571661,0.0002549944349812261,1.2713253189717779e-18
500,0.04001060296297747,2.494902818053977,0.0014904606227384987,0.0002666489712668252,1.5152501062934692e-18
600,0.046345230032269744,2.4940541688595137,0.0019876609319909866,0.0002787944674581544,1.7560135431829016e-18
700,0.05258939776418154,2.4932057900671376,0.0026207263318469565,0.00029144951167858757,1.9937281796446244e-18
800,0.05874484578254524,2.4923576887042755,0.003417725490231449,0.00030463329684016216,2.2285020754610875e-18
900,0.06481327001642549,2.491509871796365,0.004410226629538716,0.00031836563606923995,2.460439001458058e-18
1000,0.0707963239881179,2.490662346358965,0.0056332464078414635,0.0003326669783640934,2.689638631298342e-18
1100,0.076695620062515,2.4898151193901397,0.007125094654749531,0.00034755842447953267,2.916196724370155e-18
1200,0.0825127306584339,2.48896819786311,0.00892710834939181,0.000363061743038795,3.1402053002080297e-18
1300,0.08824918942228455,2.4881215887191623,0.011083272318492154,0.00037919938687203114,3.3617528048863676e-18
1400,0.09390649236481444,2.4872752988608067,0.013639728600281953,0.0003959945095752815,3.580924269795929e-18
1500,0.09948609896167783,2.4864293351451794,0.016644181027387295,0.00041347098228849966,3.797801463153194e-18
1600,0.10498943321877119,2.4855837043776785,0.020145206079696054,0.0004316534106908465,4.012463034615511e-18
1700,0.1104178847029046,2.4847384133058292,0.024191485202898266,0.00045056715220892496,4.224984653302363e-18
1800,0.11577320039101062,2.4838934686133696,0.028831341253075182,0.0004702383334329596,4.4354389295260145e-18
1900,0.12105656334408287,2.483048876914551,0.0341111574997931,0.0004906938677429196,4.6438959781315154e-18
2000,0.12626997819291894,2.4822046447486454,0.0400758328509071,0.0005119614731323718,4.8504228737939066e-18
2100,0.13141480665809657,2.4813607785746576,0.04676655901771798,0.0005340696902348396,5.055084528970908e-18
2200,0.13649238159815905,2.4805172847662282,0.05422048415667713,0.0005570479005423401,5.2579434734905634e-18
2300,0.1415040077590383,2.479674169606731,0.06246993698016312,0.0005809263448135482,5.4590599591677876e-18
2400,0.14645096250128828,2.478831439284551,0.07154172528540947,0.0006057361416704765,5.6584920597325235e-18
2500,0.1513344965056373,2.4779890998885428,0.08145652721106189,0.0006315093063714583,5.856295766290219e-18
2600,0.15615583445741396,2.4771471574036603,0.09222839040654462,0.0006582787697647641,6.052525078523385e-18
2700,0.1609161757104764,2.476305617706757,0.10386435074553224,0.0006860783974090845,6.247232091834519e-18
2800,0.1656166949311807,2.4754644865625446,0.11636417840207058,0.0007149430088648767,6.440467080646586e-18
2900,0.17025854272298704,2.474623769619715,0.12972025520683972,0.0007449083971404757,6.6322785780319015e-18
3000,0.17484284623227064,2.47378347240721,0.14391758337119231,0.0007760113482977449,6.8227134518579724e-18
3100,0.17937070973590036,2.472943600330643,0.15893392205108547,0.0008082896612046087,7.011816977625766e-18
3200,0.18384321521117664,2.4721041586688632,0.17474004494248463,0.0008417821674324699,7.199632908159107e-18
3300,0.18826142288866077,2.4712651525706604,0.19130010924859908,0.0008765287512912945,7.386203540324113e-18
3400,0.1926263717884299,2.470426587051603,0.20857212400520497,0.0009125703699935928,7.571569778902885e-18
3500,0.19693908024029996,2.4695884669910106,0.22650850393318178,0.0009499490739482974,7.755771197804473e-18
3600,0.20120054638853918,2.46875079712905,0.24505669372127337,0.0009887080271701043,7.938846098726878e-18
3700,0.20541174868156245,2.467913582063958,0.26415984691776473,0.001028891527802278,8.120831567427542e-18
3800,0.20957364634710746,2.4670768262493836,0.28375754339838244,0.0010705450287449292,8.301763527717038e-18
3900,0.21368717985336777,2.466240533991843,0.30378652963373665,0.0011137151583842098,8.481676793323369e-18
4000,0.2177532713565426,2.4654047094482916,0.3241814666459676,0.0011584497414124373,8.660605117733366e-18
4100,0.22177282513526325,2.464569356623801,0.3448756715557245,0.0012047978197329279,8.838581242138339e-18
4200,0.22574672801231566,2.463734479369347,0.365801839907376,0.001252809673445876,9.015636941609869e-18
4300,0.2296758497640968,2.462900081379694,0.3868927374528368,0.0013025368419035122,9.191803069599223e-18
4400,0.2335610435182037,2.4620661661913834,0.40808185170298483,0.0013540321448298753,9.367109600880521e-18
4500,0.23740314613955943,2.4612327371808176,0.4293039952582304,0.0014073497034983173,9.541585673068512e-18
4600,0.2412029786054486,2.4603997975624354,0.45049585464658937,0.001462544961958856,9.71525962676946e-18
4700,0.24496134636983508,2.459567350386981,0.4715964800799368,0.0015196747083062734,9.888159044529566e-18
4800,0.24867903971732172,2.4587353985398592,0.4925477131436514,0.001578797095985407,1.0060310788633633e-17
4900,0.25235683410709364,2.4579039447395754,0.5132945509280449,0.0016399716651215313,1.0231741037897956e-17
5000,0.25599549050718057,2.45707299153626,0.5337854464661744,0.0017032593638727223,1.040247532355594e-17
5100,0.25959575571935256,2.45624254131027,0.553972546543914,0.0017687225697941011,1.0572538564319739e-17
5200,0.26315836269497017,2.455412596270872,0.5738118689841918,0.0018364251112050756,1.0741955100777698e-17
5300,0.2666840308420774,2.454583158454997,0.593263422373518,0.0019064322885575802,1.0910748729195641e-17
5400,0.2701734663240304,2.4537542297260693,0.6122912718970999,0.0019788108957898842,1.1078942734870077e-17
5500,0.273627362349941,2.452925811772906,0.6308635554845587,0.0020536292416653,1.1246559925157037e-17
5600,0.2770463994572025,2.4520979061086847,0.64895245485116,0.0021309571710841357,1.1413622662297392e-17
5700,0.28043124578635475,2.45127051406998,0.6665341262618065,0.0022108660863622287,1.158015289620144e-17
5800,0.28378255734853963,2.450443636815858,0.6835885959609675,0.002293428968469069,1.174617219733955e-17
5900,0.28710097828578807,2.449617275327041,0.7000996252164997,0.0023787203982174043,1.1911701789903552e-17
6000,0.2903871411243675,2.4487914304051257,0.7160545498347408,0.0024668165773964468,1.2076762585452915e-17
6100,0.29364166702141825,2.447966102671864,0.7314440988341803,0.002557795349842018,1.2241375217240451e-17
6200,0.2968651660050905,2.447141292568499,0.7462621967305154,0.002651736222434642,1.2405560075452084e-17
6300,0.3000582372083891,2.4463170003551555,0.7605057536015908,0.0027487203860201426,1.2569337343651526e-17
6400,0.30322146909693143,2.4454932261102837,0.7741744467798357,0.0028488307362422027,1.2732727036739347e-17
6500,0.30635543969080675,2.444669969730156,0.7872704976743767,0.002952151894283772,1.2895749040783438e-17
6600,0.3094607167807248,2.44384723092841,0.7997984468658148,0.0030587702275048922,1.305842315516209e-17
6700,0.31253785813863566,2.4430250092356443,0.811764930252908,0.0031687738699732737,1.3220620461498929e-17
6800,0.31558741172299,2.4422033039990563,0.8231784586699475,0.0032822527428800763,1.3382167634302909e-17
6900,0.31860991587881027,2.4413821143821295,0.8340492030430513,0.003399298574830345,1.3543031262536175e-17
7000,0.3216058995327335,2.440561439364362,0.8443887868180255,0.0035200049220043272,1.3703232405532377e-17
7100,0.32457588238317914,2.4397412777410374,0.8542100870759677,0.0036444671881827873,1.3862791197844087e-17
7200,0.3275203750857938,2.438921628123038,0.8635270454583412,0.0037727826446241064,1.4021726916921558e-17
7300,0.33043987943431735,2.438102488936698,0.8723544897528209,0.003905050449793057,1.4180058043542816e-17
7400,0.33333488853700954,2.437283858423692,0.8807079667459712,0.004041371668929483,1.433780231601129e-17
7500,0.33620588698877013,2.436465734640965,0.8886035867292256,0.004181849293450224,1.4494976778969164e-17
7600,0.3390533510390866,2.4356481154606957,0.8960578798505733,0.004326588260180175,1.465159782752295e-17
7700,0.3418777487559296,2.434830998570296,0.9030876643351313,0.0044756954704026075,1.480768124729752e-17
7800,0.3446795401857225,2.434014381472443,0.9097099264525009,0.0046292798087220755,1.4963242250906063e-17
7900,0.3474591775094969,2.433198261485144,0.9159417119860378,0.004787452161736261,1.5118295511264458e-17
8000,0.3502171051953502,2.432382635741835,0.9218000288575378,0.004950325436505532,1.5272855192125043e-17
8100,0.35295376014731344,2.431567501191507,0.9273017604785871,0.005118014578816887,1.5426934976133126e-17
8200,0.3556695718507333,2.4307528545988633,0.932463589335292,0.0052906365912333,1.5580548090681594e-17
8300,0.3583649625142703,2.4299386925445052,0.9373019302645,0.005468310550922784,1.5733707331799743e-17
8400,0.3610403472086131,2.4291250114251457,0.9418328728452092,0.005651157627262204,1.5886425086270375e-17
8500,0.363696134002001,2.42831180745385,0.9460721323069236,0.005839301099203054,1.603871335216342e-17
8600,0.3663327240926472,2.427499076660301,0.9500350083456258,0.00603286637240219,1.619058375793083e-17
8700,0.36895051193815137,2.4266868148910916,0.9537363512362673,0.00623198099610045,1.634204758020919e-17
8800,0.3715498853819865,2.4258750178100392,0.9571905346367535,0.00643677467975079,1.6493115760440275e-17
8900,0.3741312257771444,2.425063680898525,0.9604114344910363,0.006647379309383528,1.664379892042578e-17
9000,0.376694908107016,2.424252799455856,0.9634124134568716,0.006863928963705135,1.679410737689822e-17
9100,0.37924130110358756,2.4234423685996487,0.966206310305996,0.007086559929923686,1.6944051155201274e-17
9200,0.3817707673630241,2.422632383266234,0.9688054337699257,0.007315410719290982,1.7093640002156784e-17
9300,0.38428366345871523,2.421822838211082,0.9712215603324279,0.00755062208235846,1.7242883398168498e-17
9400,0.38678034005185036,2.4210137280092487,0.9734659354992145,0.007792337023937557,1.7391790568645073e-17
9500,0.3892611419995923,2.4202050470558394,0.9755492781058916,0.00804070081775754,1.754037049192825e-17
9600,0.39172640847477097,2.4193967895664925,0.9774817872666199,0.008295861020814588,1.768862076367384e-17
9700,0.3941765137809205,2.4185889495778805,0.9792731802947483,0.00855796748740456,1.7836549889062946e-17
9800,0.39661182546869506,2.4177815209482296,0.9809326663699716,0.008827172382830595,1.798416598964292e-17
9900,0.39903270505809213,2.4169744973578537,0.9824689610485239,0.009103630196779733,1.81314769776004e-17
10000,0.4014395081439947,2.4161678723097073,0.9838903014131014,0.009387497756361496,1.827849056401073e-17
10100,0.4038325844994537,2.4153616391299524,0.9852044621403856,0.009678934238797066,1.8425214266688646e-17
10200,0.4062122781767728,2.4145557909685422,0.9864187722576273,0.009978101183754418,1.857165541765127e-17
10300,0.40857892760645587,2.413750320799818,0.9875401323852756,0.010285162505320744,1.8717821170232638e-17
10400,0.4109328656940718,2.412945221423122,0.9885750322864855,0.010600284503600621,1.8863718505856556e-17
10500,0.4132744199150969,2.4121404854634227,0.9895295685663812,0.010923635875935811,1.9009354240499215e-17
10600,0.4156039124077833,2.4113361053719538,0.99040946238429,0.011255387727734378,1.9154735030859584e-17
10700,0.4179216600641094,2.410532073426867,0.9912200770608136,0.011595713582899458,1.9299867380254926e-17
10800,0.4202279746188602,2.4097283817338977,0.9919664354786196,0.011944789393852795,1.9444757644254472e-17
10900,0.4225231627368867,2.40892502222704,0.9926532371912988,0.012302793551136393,1.9589412036069878e-17
11000,0.424807526098591,2.4081219866692383,0.9932848751686086,0.012669906892587623,1.9733836631721985e-17
11100,0.4270813614836827,2.4073192666530847,0.9938654521190053,0.013046312712075459,1.9878037374981608e-17
11200,0.42934496085324975,2.406516853601534,0.9943987963416282,0.013432196767784066,2.0022020082113175e-17
11300,0.4315986114301875,2.405714738768623,0.9948884770699407,0.013827747290038994,2.0165790446422614e-17
11400,0.43384259577802564,2.4049129132402047,0.9953378192781349,0.01423315498865707,2.0309354042624344e-17
11500,0.43607719187819344,2.4041113679346915,0.9957499179292583,0.014648613059813687,2.0452716331032774e-17
11600,0.4383026732057625,2.403310093603807,0.9961276516509036,0.015074317192409259,2.059588266159313e-17
11700,0.4405193088037024,2.4025090808333505,0.9964736958303129,0.015510465573927767,2.0738858277756013e-17
11800,0.442727363355688,2.4017083200439657,0.9967905351259347,0.015957258895769155,2.0881648320206955e-17
11900,0.44492709725749197,2.4009078014919245,0.9970804753969469,0.01641490035804427,2.1024257830455496e-17
12000,0.44711876668699596,2.400107515269915,0.997345655056057,0.016883595673815255,2.1166691754289347e-17
12100,0.4493026236728554,2.3993074513078403,0.9975880558541116,0.017363553072768823,2.1308954945106755e-17
12200,0.4514789161618482,2.398507599373625,0.9978095131077165,0.01785498330430524,2.145105216713203e-17
12300,0.45364788808494,2.3977079490740296,0.9980117253832796,0.018358099640025993,2.1592988098507454e-17
12400,0.45580977942209394,2.3969084898554742,0.998196263652668,0.018873117875603862,2.173476733428889e-17
12500,0.4579648262658574,2.3961092110048683,0.9983645799370764,0.019400256332018584,2.1876394389332727e-17
12600,0.46011326088375065,2.3953101016504483,0.9985180154567863,0.019939735856137952,2.201787370108445e-17
12700,0.4622553117794883,2.3945111507626247,0.9986578083052844,0.02049177982062589,2.2159209632276704e-17
12800,0.4643912037530586,2.3937123471548327,0.9987851006667469,0.021056614123158957,2.2300406473536274e-17
12900,0.4665211579596865,2.3929136794843937,0.9989009455962213,0.021634467184928008,2.2441468445912784e-17
13000,0.46864539196770855,2.3921151362533806,0.9990063133819693,0.022225569948408186,2.2582399703319056e-17
13100,0.47076411981538,2.391316705809492,0.9991020975094106,0.02283015587436721,2.2723204334897185e-17
13200,0.4728775520666427,2.3905183763469324,0.9991891202459456,0.023448460938099824,2.286388636731487e-17
13300,0.47498589586587436,2.389720135907299,0.999268137865662,0.024080723624854028,2.3004449766990097e-17
13400,0.4770893549916427,2.3889219723804738,0.9993398455325577,0.0247271849244316,2.31448984422476e-17
13500,0.47918812990948756,2.3881238735055246,0.9994048818604706,0.025388088324934555,2.32852362454165e-17
13600,0.48128241782375164,2.387325826871609,0.9994638331673925,0.02606367980563129,2.3425466974861094e-17
13700,0.4833724127284809,2.3865278199188875,0.9995172374412916,0.02675420782891469,2.3565594376963495e-17
13800,0.48545830545741653,2.3857298399394407,0.9995655880339694,0.027459923331323965,2.3705622148041982e-17
13900,0.48754028373309677,2.384931874078193,0.9996093370988588,0.028181079713603285,2.3845553936223387e-17
14000,0.4896185322150898,2.3841339093338423,0.9996488987880301,0.028917932829762738,2.3985393343264704e-17
14100,0.49169323254737546,2.383335932559796,0.999684652223019,0.029670740975112908,2.4125143926327104e-17
14200,0.4937645634048954,2.3825379304651104,0.9997169442534397,0.030439764873242514,2.426480919970549e-17
14300,0.4958327005392894,2.381739889615441,0.9997460920166871,0.03122526766189837,2.4404392636512085e-17
14400,0.49789781682383566,2.3809417964339916,0.9997723853113905,0.032027514877744356,2.4543897670331125e-17
14500,0.49996008229761213,2.3801436372024747,0.9997960887966377,0.032846774439953874,2.468332769681626e-17
14600,0.5020196642088969,2.379345398062074,0.9998174440283675,0.03368331663260471,2.4822686075269037e-17
14700,0.5040767270578227,2.378547065014414,0.9998366713437145,0.03453741408583655,2.4961976130175145e-17
14800,0.5061314326383036,2.3777486239225367,0.9998539716035025,0.035409341755732515,2.5101201152710003e-17
14900,0.5081839400792467,2.3769500605118785,0.9998695278025072,0.03629937690288709,2.524036440220889e-17
15000,0.5102344058850683,2.3761513603712587,0.9998835065565527,0.03720779906961358,2.537946910761979e-17
15100,0.5122829839755263,2.3753525089538696,0.9998960594749846,0.03813489005575721,2.5518518468913836e-17
15200,0.5143298257248855,2.3745534915782733,0.9999073244265395,0.03908093389306144,2.5657515658485365e-17
15300,0.5163750800004301,2.3737542934294042,0.9999174267061537,0.04004621681804965,2.5796463822516208e-17
15400,0.5184188932003362,2.372954899559576,0.9999264801097812,0.041031027243373375,2.5935366082325018e-17
15500,0.5204614092909204,2.3721552948894957,0.9999345879238525,0.042035655727747256,2.607421308667196e-17
15600,0.5225027698432769,2.3713554642092807,0.9999418438355769,0.04306039494325975,2.6212956117274642e-17
15700,0.5245431140693183,2.3705553921794835,0.9999483327699004,0.044105539643495284,2.635159925093777e-17
15800,0.5265825788572422,2.369755063332122,0.9999541316585393,0.04517138662661091,2.6490146507379483e-17
15900,0.5286212988064175,2.3689544620717125,0.9999593101461637,0.0462582346991226,2.6628601851821257e-17
16000,0.5306594062617027,2.3681535726763117,0.9999639312384532,0.04736638463686238,2.676696919747649e-17
16100,0.5326970313472112,2.367352379298562,0.9999680518964378,0.04849613914421713,2.6905252407959818e-17
16200,0.5347343019995326,2.366550865966743,0.9999717235812265,0.04964780281142256,2.704345529961534e-17
16300,0.5367713440004228,2.365749016585829,0.9999749927529493,0.05082168206986326,2.7181581643769915e-17
16400,0.5388082810089765,2.364946814938551,0.9999779013274636,0.052018085145313586,2.7319635168924564e-17
16500,0.5408452345932895,2.364144244686467,0.9999804870941346,0.05323732200906739,2.7457619562878488e-17
16600,0.5428823242616257,2.363341289371034,0.9999827840977541,0.05447970432689164,2.759553847479985e-17
16700,0.5449196674930973,2.362537932414688,0.9999848229874492,0.05574554540574839,2.7733395517242995e-17
16800,0.5469573797678694,2.361734157121931,0.9999866313352214,0.05703516013821586,2.787119426812015e-17
16900,0.5489955745969006,2.3609299466804217,0.9999882339266246,0.058348864944554935,2.800893827262809e-17
17000,0.5510343635512285,2.360125284162073,0.9999896530254357,0.059686977712348877,2.814663104513651e-17
17100,0.5530738562908094,2.359320152524156,0.9999909086156598,0.0610498177336537,2.828427607104148e-17
17200,0.5551141605929257,2.358514534610407,0.9999920186207396,0.06243770563960027,2.842187680858845e-17
17300,0.5571553823801659,2.357708413152146,0.9999929991038374,0.06385096333236862,2.8559436690663093e-17
17400,0.5591976257479891,2.356901770769395,0.9999938644496024,0.06528991391447836,2.869695912656639e-17
17500,0.5612409929918839,2.356094589972008,0.9999946275293699,0.0667548816153194,2.88344475037565e-17
17600,0.5632855846341281,2.355286853160802,0.999995299851144,0.06824619171485735,2.8971905189585494e-17
17700,0.5653314994501611,2.354478542628701,0.9999958916956673,0.06976417046444139,2.9109335533011493e-17
17800,0.5673788344945739,2.3536696405618778,0.9999964122397739,0.07130914500464935,2.9246741866306403e-17
17900,0.5694276851267284,2.3528601290409092,0.999996869668133,0.07288144328009083,2.938412750675133e-17
18000,0.5714781450360111,2.352049990041935,0.9999972712743965,0.07448139395109843,2.952149575832566e-17
18100,0.573530306266732,2.351239205437823,0.9999976235526867,0.07610932630224654,2.9658849913400786e-17
18200,0.5755842592426724,2.3504277569993404,0.9999979322802789,0.07776557014760177,2.9796193254425426e-17
18300,0.5776400927912929,2.3496156263963344,0.9999982025922711,0.07945045573265963,2.993352905562044e-17
18400,0.5796978941676046,2.3488027951989165,0.9999984390489601,0.08116431363286902,3.007086058467977e-17
