Timestep (s),Sum Voltage (V),Carry Out Voltage (V),Sum Error Rate (Dimless),Carry Out Error Rate (Dimless),Energy Dissipation (J)
0,2.499241452670864,0.006923328216331028,0.00021189617522687776,0.00029342178085622894,1.6162383117029378e-19
100,2.498465677711892,0.01374514779671432,0.00022084328040716805,0.00041716343596165384,3.213351593743908e-19
200,2.4976724921163824,0.0204675363279761,0.0002303548563863389,0.0005850313519196737,4.79203047903934e-19
300,2.4968617234014845,0.027092516663489465,0.0002404713004611203,0.0008097050496786995,6.352937805319249e-19
400,2.4960332092718827,0.03362205872387429,0.0002512361100133198,0.001106514285662441,7.89670973866743e-19
500,2.4951867972904282,0.040058081235986254,0.00026269613684615223,0.0014937212994147187,9.423956897668713e-19
600,2.494322344556077,0.04640245338772533,0.0002749018625471944,0.001992768999948713,1.0935265435334978e-18
700,2.4934397173893896,0.05265699643475258,0.0002879076966204597,0.002628479088622626,1.2431198079352082e-18
800,2.4925387910257975,0.05882348523234219,0.0003017722992481042,0.003429184134678187,1.3912295131893988e-18
900,2.4916194493167545,0.06490364971660703,0.00031655893071125263,0.00442677853530149,1.5379075429816035e-18
1000,2.4906815844388626,0.07089917632324705,0.00033233582963354547,0.005656675115312204,1.6832037266407529e-18
1100,2.489725096610992,0.07681170935812838,0.0003491766223910897,0.007157656822874614,1.8271659275666313e-18
1200,2.4887498938193966,0.08264285231042758,0.0003671607662066867,0.008971616441020291,1.969840128036559e-18
1300,2.4877558915507794,0.08839416911727009,0.000386374028627956,0.011143181312800898,2.1112705104948293e-18
1400,2.4867430125332435,0.09406718538578626,0.00040690900630180327,0.013719224558542353,2.2514995354398502e-18
1500,2.4857111864850334,0.09966338956170867,0.00042886568615330134,0.01674826890417791,2.3905680160328156e-18
1600,2.484660349870959,0.10518423406346,0.0004523520523150859,0.020279793817352787,2.528515189532835e-18
1700,2.4835904456663758,0.11063113637370897,0.0004774847423815176,0.024363460879341714,2.665378785679628e-18
1800,2.4825014231285745,0.11600548007890978,0.0005043897568148825,0.029048276001187867,2.8011950921490536e-18
1900,2.481393237575439,0.12130861588869084,0.0005332032255898067,0.03438171007217394,2.9359990171691494e-18
2000,2.480265850171205,0.12654186260605038,0.0005640722364366191,0.0404088016499603,3.069824149432462e-18
2100,2.479119227719158,0.13170650807237316,0.0005971557293359409,0.04717126643001435,3.2027028153963885e-18
2200,2.477953342461096,0.13680381006487466,0.0006326254622051053,0.054706638266192265,3.3346661341018928e-18
2300,2.476768171883386,0.14183499718067094,0.0006706670530420844,0.06304746567341202,3.465744069579376e-18
2400,2.475563698529435,0.1468012696723647,0.0007114811040930258,0.07222058583257429,3.595965480986529e-18
2500,2.4743399098183976,0.15170380026736813,0.0007552844139651071,0.08224649558568553,3.725358170540232e-18
2600,2.4730967978699434,0.1565437349517379,0.0008023112839168345,0.09313883556217062,3.8539489293655455e-18
2700,2.4718343593349044,0.16132219372790293,0.0008528149249308337,0.10490399986575416,3.981763581344362e-18
2800,2.4705525952316263,0.16604027134950958,0.0009070689724995917,0.11754087969819338,4.108827025052092e-18
2900,2.4692515107878497,0.17069903802938102,0.0009653691164290823,0.13104074511630182,4.235163273881953e-18
3000,2.4679311152879473,0.17529954011925977,0.001028034853296056,0.1453872650177177,4.360795494435732e-18
3100,2.466591421925347,0.17984280077324669,0.0010954113695587075,0.16055666160979132,4.4857460432608715e-18
3200,2.465232447659975,0.18432982058865033,0.0011678715636508352,0.17651799203797602,4.610036502017809e-18
3300,2.4638542130805536,0.1887615782202549,0.0012458182157222275,0.1932335467737336,4.733687711158009e-18
3400,2.462456742271592,0.1931390309766562,0.0013296863139918846,0.21065935186728824,4.856719802184441e-18
3500,2.46104006268492,0.19746311540017825,0.0014199455469726674,0.22874576019616844,4.9791522285630094e-18
3600,2.4596042050155993,0.2017347478219845,0.0015171029710789874,0.24743811543854466,5.10100379536577e-18
3700,2.458149203082078,0.20595482490435507,0.001621705863345868,0.2666774718133076,5.222292687699997e-18
3800,2.4566750937104302,0.21012422416447893,0.0017343447691612335,0.28640135235310205,5.343036498000321e-18
3900,2.455181916622549,0.21424380447626337,0.0018556567550317427,0.3065445287814501,5.463252252247123e-18
4000,2.4536697143281483,0.21831440656300877,0.0019863288764414566,0.327039806896692,5.582956435162705e-18
4100,2.452138532020447,0.22233685347265766,0.0021271018708539646,0.34781880239865104,5.70216501445692e-18
4200,2.450588417475402,0.2263119510316967,0.0022787740857671546,0.3688126935362448,5.8208934641829266e-18
4300,2.4490194209543663,0.23024048829669203,0.0024422056515287505,0.3899529387278464,5.939156787246249e-18
4400,2.447431595110052,0.23412323798056117,0.0026183229082664683,0.41117194888738906,6.056969537142513e-18
4500,2.445824994895677,0.23796095686816818,0.002808123095818349,0.4324037062544531,6.174345838971664e-18
4600,2.444199677477191,0.2417543862256418,0.00301267931491922,0.4535843233628848,6.291299409778148e-18
4700,2.442555702148459,0.2455042521920104,0.0032331457671006536,0.4746525375318228,6.407843578285505e-18
4800,2.4408931302493055,0.24921126615438383,0.0034707632797772447,0.49555013807677273,6.523991304078763e-18
4900,2.4392120250863147,0.25287612512173485,0.0037268651217998716,0.5162223251358004,6.6397551962824394e-18
5000,2.437512451856285,0.2564995120785099,0.004002883113318423,0.5366180002753627,6.755147531802032e-18
5100,2.4357944775722475,0.2600820963317751,0.00430035403213147,0.5566899905060281,6.870180273185186e-18
5200,2.4340581709919493,0.2636245338504286,0.004620926316735274,0.5763952083490489,6.984865086157053e-18
5300,2.432303602548722,0.26712746758600486,0.004966367064037858,0.5956947514497823,7.099213356909316e-18
5400,2.4305308442846414,0.2705915277975802,0.0053385693171394966,0.6145539461344709,7.213236209187328e-18
5500,2.4287399697859002,0.27401733234741954,0.005739559635647096,0.6329423395335154,7.326944521279313e-18
5600,2.4269310541203137,0.2774054870100504,0.006171505937741628,0.6508336456800012,7.44034894294251e-18
5700,2.425104173776881,0.2807565857551988,0.006636725599529658,0.6682056507538592,7.553459912390482e-18
5800,2.423259406607327,0.2840712110315772,0.007137693793163091,0.6850400830803757,7.666287673402039e-18
5900,2.4213968317695582,0.2873499340380715,0.00767705204071667,0.7013224532275736,7.778842292670126e-18
6000,2.419516529672955,0.2905933149901477,0.008257616955905878,0.7170418695138145,7.891133677489337e-18
6100,2.4176185819254465,0.2938019033802491,0.008882389140352553,0.7321908339580033,8.003171593913399e-18
6200,2.415703071282294,0.29697623822261043,0.00955456219530848,0.7467650233721661,8.114965685528173e-18
6300,2.413770081596527,0.30011684830065966,0.010277531803480344,0.7607630600828441,8.22652549298646e-18
6400,2.4118196977709703,0.30322425239841994,0.011054904828892043,0.7741862762118947,8.33786047451069e-18
6500,2.4098520057118105,0.3062989595381287,0.011890508375584474,0.7870384752334505,8.448980027549601e-18
6600,2.407867092283639,0.3093414691966581,0.012788398738399653,0.7993256938907919,8.559893511874187e-18
6700,2.405865045265928,0.31235227152786166,0.013752870171159226,0.8110559673853297,8.670610274377157e-18
6800,2.4038459533108822,0.31533184756878246,0.01478846338926365,0.822239100135823,8.781139675948002e-18
6900,2.4018099059026223,0.31828066944900013,0.015899973715160387,0.8328864441905508,8.891491120828413e-18
7000,2.399756993317651,0.321199200590795,0.017092458766316265,0.8430106868799123,9.001493598181188e-18
7100,2.3976873065885833,0.3240878958995081,0.018371245575055206,0.8526256490078977,9.1111575524274e-18
7200,2.3956009374672624,0.3269472019560497,0.019741937023903366,0.8617460946070561,9.220494259118289e-18
7300,2.393497978389013,0.32977755720094437,0.021210417468163434,0.8703875529165441,9.329514422124549e-18
7400,2.3913785224380195,0.33257939211208826,0.022782857409396673,0.878566153036586,9.438228221850161e-18
7500,2.389242663313787,0.3353531293813221,0.024465717074889093,0.886298471493606,9.546645357821034e-18
7600,2.387090495298645,0.3380991840818364,0.026265748749990214,0.893601392715849,9.6547750864805e-18
7700,2.3849221132262626,0.3408179638355442,0.028189997702624536,0.9004919823027703,9.762626254857769e-18
7800,2.3827376124511406,0.3435098689736874,0.030245801532419403,0.9069873727845988,9.870207330681466e-18
7900,2.380537088819045,0.3461752926921141,0.03244078777102721,0.9131046614779501,9.977526429413188e-18
8000,2.378320638638355,0.3488146212067538,0.03478286955547771,0.918860819957914,1.0084591338594282e-17
8100,2.376088358652292,0.3514282338984728,0.03728023919305723,0.9242726145573538,1.019140953985457e-17
8200,2.3738403460120012,0.354016503463963,0.03994135943445054,0.9293565373130467,1.0297988228854921e-17
8300,2.3715766982504616,0.3565797960514978,0.04277495227197159,0.9341287466590531,1.0404334333431077e-17
8400,2.369297513257192,0.3591184714004991,0.04578998508187049,0.938605017231825,1.0510454530129496e-17
8500,2.367002889253733,0.3616328829783941,0.04899565393416094,0.9428006980853239,1.0616355259327449e-17
8600,2.364692924769878,0.3641233781070991,0.052401363900445364,0.9467306786191354,1.0722042739094247e-17
8700,2.362367718620628,0.36659029809364785,0.05601670619998822,0.950409361569917,1.0827522977927367e-17
8800,2.3600273698838556,0.36903397835297874,0.059851432037092756,0.9538506423873264,1.0932801786482522e-17
8900,2.3576719778786446,0.37145474853146915,0.06391542299878361,0.957067894373447,1.1037884788399567e-17
9000,2.3553016421442963,0.3738529326209043,0.068218657901155,0.9600739589638482,1.1142777430323155e-17
9100,2.352916462419976,0.37622884908067566,0.07277117599555472,0.962881140597933,1.1247484991181007e-17
9200,2.3505165386249858,0.3785828109412387,0.07758303647223141,0.9655012056012493,1.1352012590815216e-17
9300,2.348101970839639,0.3809151259215952,0.08266427422918854,0.9679453846129767,1.1456365198000447e-17
9400,2.3456715615052057,0.3832260965342805,0.0880277835397314,0.9702243780537071,1.1560545891090548e-17
9500,2.3432185602567697,0.3855160201879152,0.09370002738174421,0.972348364211186,1.1664549966110109e-17
9600,2.340743133505662,0.387785189292597,0.09969319850019309,0.9743270095480884,1.1768381741463814e-17
9700,2.3382454469284064,0.3900338913565613,0.10601935947216945,0.9761694808552733,1.1872045409496974e-17
9800,2.335725665484215,0.3922624090833212,0.11269036615779526,0.977884458928141,1.1975545042220127e-17
9900,2.3331839534313645,0.3944710204684325,0.11971778528321197,0.9794801534651869,1.2078884596688523e-17
10000,2.3306204743425414,0.39665999889217124,0.12711280634523114,0.9809643189172672,1.218206792005717e-17
10100,2.328035391119217,0.39882961320881205,0.13488614811767596,0.9823442710492408,1.2285098754345788e-17
10200,2.325428866005117,0.4009801278344429,0.14304796013664978,0.9836269040032508,1.2387980740928934e-17
10300,2.3228010605988496,0.40311180283635406,0.15160771964502773,0.98481870767827,1.2490717424771133e-17
10400,2.3201521358657424,0.405225730454149,0.16057412458446108,0.9859262093210812,1.2593311527394038e-17
10500,2.3174822521489435,0.40732133565789835,0.16995498333471482,0.986954669763456,1.26957671169511e-17
10600,2.3147915691798295,0.409398866014874,0.17975710201375883,0.987909475168814,1.2798087472133937e-17
10700,2.3120802460877674,0.41145856506307005,0.18998617026589393,0.9887956769294847,1.2900275790012542e-17
10800,2.3093484414092726,0.41350067238826343,0.20064664657736708,0.9896180085783178,1.3002335189263051e-17
10900,2.306596313096597,0.4155254236987934,0.21174164426679154,0.9903809023245461,1.3104268713233715e-17
11000,2.3038240185257863,0.4175330508988828,0.2232728194029775,0.9910885051547144,1.3206079332859181e-17
11100,2.301031714504238,0.4195237821605676,0.23524026198421188,0.9917446944509206,1.3307769949433078e-17
11200,2.298219557277789,0.4214978419938336,0.24764239181809344,0.9923530930889898,1.3409343397248372e-17
11300,2.295387702537364,0.4234554513148867,0.26047586057914707,0.992917083988644,1.351080244611378e-17
11400,2.292536305425213,0.4253968275136841,0.27373546159538287,0.9934398240961962,1.3612149803753002e-17
11500,2.2896655205407526,0.4273221845189613,0.28741404893411593,0.9939242577865315,1.3713388118095563e-17
11600,2.286775501946051,0.4292317328626079,0.3015024673694303,0.9943731296783663,1.381451997946416e-17
11700,2.2838664031709603,0.43112567974232663,0.31598949479752925,0.9947889968611962,1.39155479226655e-17
11800,2.28093837721793,0.4330042290829074,0.33086179862389653,0.9951742405372692,1.4016474428990233e-17
11900,2.277991576566512,0.4348675815962369,0.3461039075756751,0.99553107708565,1.411730192812672e-17
12000,2.2750261531775777,0.4367159348400238,0.36169820029281585,0.9958615685585789,1.4218032799993994e-17
12100,2.2720422584972657,0.4385494832749916,0.3776249119212195,0.9961676326229172,1.4318669376498367e-17
12200,2.2690400434606692,0.44036841832142287,0.39386215977077454,0.9964510519617761,1.4419213943217336e-17
12300,2.266019658495283,0.44217292841388744,0.41038598891103595,0.9967134831527465,1.4519668741015572e-17
12400,2.2629812535242206,0.4439631990548901,0.4271704383583874,0.9969564650407837,1.4620035967596203e-17
12500,2.2599249779692143,0.44573941286794944,0.44418762826333713,0.9971814266246666,1.4720317778990468e-17
12600,2.256850980753409,0.4475017496486911,0.4614078682374728,0.9973896944763609,1.4820516290989914e-17
12700,2.2537594103039638,0.44925038641574283,0.47879978667007606,0.9975824997134605,1.492063358052303e-17
12800,2.250650414554465,0.45098549745964917,0.49633048057891005,0.9977609845445974,1.5020671686980317e-17
12900,2.247524140947166,0.45270725439158344,0.5139656852228834,0.9979262084081614,1.5120632613489206e-17
13000,2.2443807364350614,0.4544158261904585,0.531669962381839,0.9980791537241327,1.5220518328142416e-17
13100,2.2412203474838,0.45611137924940376,0.5494069058866949,0.9982207312788289,1.532033076518137e-17
13200,2.2380431200734487,0.457794077421203,0.567139362667842,0.9983517852618146,1.542007182613722e-17
13300,2.2348491997001116,0.4594640820626503,0.5848296672880349,0.9984730979737994,1.55197433809316e-17
13400,2.2316387313774126,0.4611215520782544,0.6024398876446462,0.9985853942238341,1.5619347268938708e-17
13500,2.228411859637846,0.4627666439626426,0.6199320792719214,0.9986893454334321,1.5718885300011287e-17
13600,2.225168728534003,0.46439951184253325,0.6372685454533429,0.9987855734647133,1.5818359255471488e-17
13700,2.2219094816396763,0.4660203075177851,0.6544121001734138,0.9988746541888974,1.591777088906859e-17
13800,2.2186342620508515,0.46762918050114,0.6713263308026688,0.9989571208108088,1.601712192790566e-17
13900,2.2153432123865877,0.469226278057838,0.6879758573241046,0.9990334669644363,1.6116414073335694e-17
14000,2.212036474789791,0.4708117452441285,0.7043265848774166,0.999104149593768,1.6215649001829406e-17
14100,2.208714190927886,0.47238572494483727,0.7203459464218188,0.9991695916324951,1.6314828365815898e-17
14200,2.2053765019933915,0.4739483579103989,0.7360031324004509,0.9992301844954893,1.6413953794497377e-17
14300,2.202023548704398,0.47549978279321425,0.751269304429393,0.9992862903942605,1.6513026894639025e-17
14400,2.198655471304955,0.47704013618311736,0.7661177902308334,0.999338244487933,1.661204925133553e-17
14500,2.19527240956537,0.47856955264213263,0.7805242572803393,0.9993863568806554,1.6711022428755367e-17
14600,2.1918745027824214,0.4800881647388135,0.7944668629383621,0.9994309144757402,1.6809947970863416e-17
14700,2.188461889779486,0.48159610308149936,0.8079263791807484,0.9994721826961905,1.6908827402123783e-17
14800,2.1850347089065894,0.4830934963512803,0.8208862904255089,0.9995104070807503,1.7007662228183076e-17
14900,2.181593098040375,0.4845804713342093,0.8333328633659312,0.9995458147640152,1.7106450481071287e-17
15000,2.178137194583974,0.48605715295268276,0.8452551881547817,0.9995786158486308,1.720515796441682e-17
15100,2.174667135466622,0.4875236642967335,0.8566451907321024,0.99960900467712,1.730378646214904e-17
15200,2.1711830571434563,0.48898012665397594,0.8674976165376038,0.9996371610103537,1.7402337720536082e-17
15300,2.167685095595245,0.4904266595396856,0.8778099862952704,0.9996632511192901,1.7500813449641382e-17
15400,2.1641733863280415,0.4918633807258472,0.8875825249848018,0.9996874287961173,1.7599215324698235e-17
15500,2.1606480643727717,0.49329040626990545,0.896818065517282,0.9997098362905684,1.7697544987408305e-17
15600,2.1571092642847534,0.4947078505427391,0.9055219290015792,0.9997306051767709,1.779580404717008e-17
15700,2.1535571201431485,0.49611582625641354,0.9137017838156285,0.9997498571556473,1.789399408224213e-17
15800,2.149991765550347,0.4975144444910843,0.9213674859764941,0.999767704797526,1.7992116640846277e-17
15900,2.1464133336312883,0.49890381472159523,0.9285309035295307,0.9997842522293168,1.8090173242214572e-17
16000,2.142821957032717,0.5002840448434854,0.9352057278462852,0.9997995957702964,1.818816537758426e-17
16100,2.1392177679223754,0.5016552411985907,0.9414072748305147,0.9998138245202702,1.8286094511144143e-17
16200,2.1356008979881294,0.5030175086002173,0.9471522790810208,0.9998270209036106,1.8383962080935595e-17
16300,2.1319714784370376,0.5043709503576053,0.9524586840496102,0.9998392611724254,1.848176949971146e-17
16400,2.1283296399943534,0.5057156683000942,0.9573454311645547,0.999850615871881,1.8579518155755303e-17
16500,2.1246755129024657,0.5070517628010036,0.9618322507679731,0.99986115027049,1.8677209413663447e-17
16600,2.1210092269197807,0.5083793328007423,0.9659394575444251,0.9998709247579629,1.877484461509261e-17
16700,2.1173309113195384,0.5096984758297269,0.9696877529035858,0.9998799952130457,1.887242507947469e-17
16800,2.1136406948885713,0.5110092880308701,0.9730980365288349,0.9998884133435866,1.8969952104701035e-17
16900,2.109938705925999,0.5123118641815082,0.9761912290234218,0.9998962270009064,1.906742696777794e-17
17000,2.106225072241863,0.5136062977151176,0.978988107284257,0.9999034804704049,1.916485092545499e-17
17100,2.102499921155701,0.5148926807425309,0.9815091539183327,0.9999102147401852,1.9262225214827856e-17
17200,2.0987633794950593,0.5161711040727466,0.9837744216961163,0.9999164677493508,1.935955105391707e-17
17300,2.0950155735939426,0.5174416572334621,0.9858034137176103,0.9999222746175098,1.9456829642223917e-17
17400,2.0912566292912045,0.5187044284911865,0.9876149796571281,0.9999276678569007,1.955406216126497e-17
17500,2.0874866719288754,0.5199595048709953,0.9892272281586271,0.9999326775684553,1.9651249775086178e-17
17600,2.083705826350428,0.5212069721758211,0.9906574551802589,0.9999373316230129,1.9748393630757844e-17
17700,2.0799142168989806,0.5224469150056853,0.9919220878392083,0.9999416558288107,1.9845494858851225e-17
17800,2.07611196741544,0.5236794167763165,0.9930366430895973,0.9999456740862892,1.9942554573897952e-17
17900,2.072299201236577,0.5249045597375203,0.9940157003797984,0.9999494085311749,2.00395738748331e-17
18000,2.0684760411930445,0.5261224249913317,0.9948728872825067,0.9999528796667314,2.0136553845422526e-17
18100,2.064642609607327,0.5273330925096498,0.9956208769719264,0.9999561064859989,2.0233495554675676e-17
18200,2.0607990282916284,0.5285366411518445,0.9962713963370707,0.9999591065847848,2.033040005724407e-17
18300,2.056945418545694,0.5297331486816749,0.9968352434672476,0.9999618962661071,2.0427268393806737e-17
18400,2.0530819011545676,0.5309226917842845,0.9973223132233439,0.9999644906367409,2.0524101591442622e-17
18500,2.0492085963862845,0.5321053460827067,0.9977416296140028,0.9999669036964681,2.0620900663991127e-17
18600,2.045325623989495,0.5332811861540724,0.9981013837261516,0.9999691484205865,2.071766661240104e-17
