Timestep (s),Sum Voltage (V),Carry Out Voltage (V),Sum Error Rate (Dimless),Carry Out Error Rate (Dimless),Energy Dissipation (J)
0,0.00691646174141851,2.499149875075698,1.0,1.0,1.5622026081468943e-19
100,0.01373068371083104,2.4982999790157185,1.0,1.0,3.104845461154822e-19
200,0.02044359782913196,2.4974503188710635,1.0,1.0,4.628666434194009e-19
300,0.02705783244379304,2.49660090181276,1.0,1.0,6.134366475322064e-19
400,0.03357539861343938,2.4957517351239615,1.0,1.0,7.622620628333189e-19
500,0.03999825495585625,2.4949028261923387,1.0,1.0,9.094076867706819e-19
600,0.0463283093654267,2.494054182502744,1.0,1.0,1.0549357234641073e-18
700,0.05256742066258317,2.4932058116301463,1.0,1.0,1.198905892914158e-18
800,0.05871740017866008,2.4923577212328247,1.0,1.0,1.3413755359059355e-18
900,0.06478001327897176,2.491509919045807,1.0,1.0,1.4823997147280023e-18
1000,0.07075698082699398,2.490662412874554,1.0,1.0,1.622031309821148e-18
1100,0.07664998059217133,2.4898152105888722,1.0,1.0,1.760321112484997e-18
1200,0.08246064860392513,2.488968320117053,1.0,1.0,1.8973179137462398e-18
1300,0.0881905804543177,2.4881217494402295,1.0,1.0,2.033068589524432e-18
1400,0.09384133255150648,2.4872755065869376,1.0,1.0,2.1676181822145455e-18
1500,0.09941442332631446,2.486429599627886,1.0,1.0,2.301009978811267e-18
1600,0.10491133439379706,2.485584036670914,1.0,1.0,2.4332855856887922e-18
1700,0.11033351167189186,2.4847388258561467,1.0,1.0,2.564485000172304e-18
1800,0.11568236645888895,2.4838939753513216,1.0,1.0,2.6946466790095907e-18
1900,0.12095927647162814,2.4830494933473006,1.0,1.0,2.8238076038625112e-18
2000,0.1261655868458906,2.482205388053745,1.0,1.0,2.9520033439444866e-18
2100,0.13130261110082286,2.4813616676949595,1.0,1.0,3.079268115903202e-18
2200,0.1363716320687322,2.480518340505891,1.0,1.0,3.2056348410654794e-18
2300,0.1413739027917905,2.479675414728284,1.0,1.0,3.331135200164987e-18
2400,0.14631064738698393,2.4788328986069805,1.0,1.0,3.4557996856347455e-18
2500,0.15118306188064778,2.4779908003863658,1.0,1.0,3.579657651584149e-18
2600,0.15599231501383085,2.4771491283069498,1.0,1.0,3.702737361556378e-18
2700,0.16073954901964907,2.4763078906020857,1.0,1.0,3.825066034158999e-18
2800,0.16542588037387004,2.4754670954948126,1.0,1.0,3.9466698866573896e-18
2900,0.17005240051966367,2.4746267511948274,1.0,1.0,4.067574176631135e-18
3000,0.1746201765676664,2.4737868658955744,1.0,1.0,4.187803241773177e-18
3100,0.17913025197233826,2.472947447771453,1.0,1.0,4.3073805379104975e-18
3200,0.1835836471854884,2.472108504975135,1.0,1.0,4.4263286753278846e-18
3300,0.18798136028794152,2.471270045634996,1.0,1.0,4.5446694534836354e-18
3400,0.192324367600157,2.4704320778526454,1.0,1.0,4.662423894172529e-18
3500,0.1966136242726784,2.469594609700563,1.0,1.0,4.779612273216608e-18
3600,0.20085006485710585,2.4687576492198327,1.0,1.0,4.896254150750174e-18
3700,0.2050346038584666,2.467921204417967,1.0,1.0,5.01236840016006e-18
3800,0.2091681362695714,2.4670852832668304,1.0,1.0,5.12797323575274e-18
3900,0.21325153808814268,2.4662498937006445,1.0,1.0,5.2430862391914065e-18
4000,0.21728566681732286,2.465415043614084,1.0,1.0,5.357724384771902e-18
4100,0.22127136195019043,2.4645807408604514,1.0,1.0,5.4719040635943606e-18
4200,0.2252094454389084,2.463746993249934,1.0,1.0,5.5856411066640845e-18
4300,0.22910072214904695,2.4629138085479383,1.0,1.0,5.698950806994359e-18
4400,0.23294598029967006,2.4620811944734977,1.0,1.0,5.811847940734005e-18
4500,0.23674599188967094,2.461249158697754,1.0,1.0,5.9243467873864795e-18
4600,0.2405015131108993,2.4604177088425074,1.0,1.0,6.036461149152003e-18
4700,0.24421328474853157,2.459586852478834,1.0,1.0,6.148204369431077e-18
4800,0.2478820325691698,2.458756597125769,1.0,1.0,6.259589350534884e-18
4900,0.2515084676971087,2.4579269502490533,1.0,1.0,6.370628570633135e-18
5000,0.25509328697917155,2.4570979192599394,1.0,1.0,6.481334099982828e-18
5100,0.25863717333857633,2.4562695115140585,1.0,1.0,6.591717616462398e-18
5200,0.2621407961181712,2.455441734310341,1.0,1.0,6.7017904204515106e-18
5300,0.26560481141343134,2.454614594889995,1.0,1.0,6.811563449075055e-18
5400,0.269029862395598,2.4537881004355366,1.0,1.0,6.921047289859307e-18
5500,0.2724165796252724,2.4529622580698716,1.0,1.0,7.030252193805365e-18
5600,0.27576558135681767,2.4521370748554254,1.0,1.0,7.139188087922775e-18
5700,0.27907747383388976,2.451312557793323,1.0,1.0,7.247864587243136e-18
5800,0.2823528515763758,2.4504887138226126,1.0,1.0,7.356291006335451e-18
5900,0.28559229765908134,2.4496655498195374,1.0,1.0,7.464476370347064e-18
6000,0.28879638398238505,2.4488430725968464,1.0,1.0,7.572429425592344e-18
6100,0.2919656715352035,2.4480212889031487,1.0,1.0,7.680158649710269e-18
6200,0.29510071065046667,2.4472002054223094,1.0,1.0,7.787672261407422e-18
6300,0.29820204125338395,2.4463798287728804,1.0,1.0,7.894978229811735e-18
6400,0.30127019310274594,2.4455601655075725,1.0,1.0,8.00208428344304e-18
6500,0.30430568602546954,2.4447412221127625,1.0,1.0,8.108997918832538e-18
6600,0.30730903014463085,2.4439230050080334,1.0,1.0,8.215726408789181e-18
6700,0.310280726101196,2.443105520545751,1.0,1.0,8.322276810346719e-18
6800,0.3132212652696449,2.4422887750106703,1.0,1.0,8.428655972394104e-18
6900,0.3161311299677041,2.441472774619576,1.0,1.0,8.534870543006916e-18
7000,0.3190107936603572,2.440657525520951,1.0,1.0,8.640926976487838e-18
7100,0.3218607211583402,2.439843033794675,1.0,1.0,8.746831540140162e-18
7200,0.3246813688112898,2.4390293054517507,1.0,1.0,8.85259032077765e-18
7300,0.32747318469569847,2.4382163464340594,1.0,1.0,8.958209230977329e-18
7400,0.3302366087978741,2.437404162614139,1.0,1.0,9.06369401510347e-18
7500,0.33297207319203415,2.43659275979499,1.0,1.0,9.169050255095071e-18
7600,0.33568000221369426,2.4357821437099054,1.0,1.0,9.274283376037006e-18
7700,0.338360812628508,2.434972320022324,1.0,1.0,9.379398651517757e-18
7800,0.3410149137966904,2.434163294325704,1.0,1.0,9.484401208792863e-18
7900,0.3436427078331564,2.4333550721434234,1.0,1.0,9.589296033750242e-18
8000,0.3462445897635244,2.4325476589286956,1.0,1.0,9.694087975692762e-18
8100,0.34882094767609145,2.43174106006451,1.0,1.0,9.798781751947187e-18
8200,0.35137216286991535,2.4309352808635887,1.0,1.0,9.903381952301741e-18
8300,0.35389860999912215,2.4301303265683645,1.0,1.0,1.000789304328107e-17
8400,0.3564006572135406,2.4293262023509747,1.0,1.0,1.0112319372270414e-17
8500,0.35887866629578874,2.428522913313273,1.0,1.0,1.021666517148662e-17
8600,0.361332992794914,2.4277204644868595,1.0,1.0,1.0320934561812088e-17
8700,0.36376398615668215,2.4269188608331245,1.0,1.0,1.0425131556484517e-17
8800,0.3661719898506232,2.4261181072433096,1.0,1.0,1.0529260064667294e-17
8900,0.36855734149392894,2.425318208538582,1.0,1.0,1.0633323894881389e-17
9000,0.3709203729722858,2.4245191694701242,1.0,1.0,1.0737326758328375e-17
9100,0.37326141055774614,2.4237209947192375,1.0,1.0,1.0841261177705602e-17
9200,0.37558077502367404,2.4229236888974564,1.0,1.0,1.0945130143672514e-17
9300,0.3778787817573427,2.4221272565466765,1.0,1.0,1.1048936935318584e-17
9400,0.3801557408698222,2.4213317021392946,1.0,1.0,1.1152684742251656e-17
9500,0.38241195730322397,2.420537030078359,1.0,1.0,1.1256376667428202e-17
9600,0.3846477309353753,2.4197432446977305,1.0,1.0,1.1360015729895905e-17
9700,0.3868633566819939,2.4189503502622554,1.0,1.0,1.1463604867430763e-17
9800,0.38905912459644393,2.4181583509679454,1.0,1.0,1.1567146939087447e-17
9900,0.391235319967123,2.41736725094217,1.0,1.0,1.1670644727667554e-17
10000,0.39339222341256724,2.4165770542438563,1.0,1.0,1.1774100942101749e-17
10100,0.39553011097432406,2.4157877648636963,1.0,1.0,1.1877518219747008e-17
10200,0.3976492542076566,2.414999386724365,1.0,1.0,1.1980899128619461e-17
10300,0.39974992027014555,2.4142119236807447,1.0,1.0,1.2084246169539872e-17
10400,0.4018323720082387,2.4134253795201563,1.0,1.0,1.2187561778219344e-17
10500,0.4038968680418056,2.412639757962599,1.0,1.0,1.2290848327268395e-17
10600,0.40594366284676725,2.411855062660995,1.0,1.0,1.2394108128148343e-17
10700,0.40797300683581633,2.4110712972014436,1.0,1.0,1.2497343433050252e-17
10800,0.40998514643732586,2.410288465103477,1.0,1.0,1.2600556436721833e-17
10900,0.41198032417245917,2.4095065698203255,1.0,1.0,1.2703749278235212e-17
11000,0.4139587787305409,2.408725614739187,1.0,1.0,1.280692404269135e-17
11100,0.4159207450427451,2.407945603181502,1.0,1.0,1.2910082762879996e-17
11200,0.4178664543541287,2.40716653840323,1.0,1.0,1.3013227420880407e-17
11300,0.41979613429406376,2.406388423595138,1.0,1.0,1.3116359949618573e-17
11400,0.4217100089451091,2.405611261883084,1.0,1.0,1.3219482234368716e-17
11500,0.423608298910361,2.404835056328314,1.0,1.0,1.3322596114216222e-17
11600,0.42549122137932427,2.4040598099277535,1.0,1.0,1.342570338347307e-17
11700,0.42735899019233714,2.4032855256143115,1.0,1.0,1.3528805793049545e-17
11800,0.4292118159035972,2.402512206257181,1.0,1.0,1.3631905051786649e-17
11900,0.43104990584280856,2.4017398546621447,1.0,1.0,1.3735002827741988e-17
12000,0.4328734641755075,2.4009684735718864,1.0,1.0,1.3838100749454652e-17
12100,0.434682691962078,2.400198065666301,1.0,1.0,1.3941200407154062e-17
12200,0.4364777872155046,2.3994286335628083,1.0,1.0,1.4044303353943025e-17
12300,0.4382589449578912,2.3986601798166713,1.0,1.0,1.4147411106947273e-17
12400,0.4400263572757717,2.3978927069213136,1.0,1.0,1.4250525148428168e-17
12500,0.4417802133742513,2.3971262173086396,1.0,1.0,1.4353646926871926e-17
12600,0.44352069963000285,2.396360713349358,1.0,1.0,1.445677785803714e-17
12700,0.4452479996431441,2.3955961973533033,1.0,1.0,1.455991932598249e-17
12800,0.4469622942880306,2.3948326715697643,1.0,1.0,1.466307268406234e-17
12900,0.4486637617629865,2.394070138187808,1.0,1.0,1.4766239255897404e-17
13000,0.4503525776389972,2.3933085993366072,1.0,1.0,1.486942033631798e-17
13100,0.4520289149073941,2.39254805708577,1.0,1.0,1.49726171922826e-17
13200,0.4536929440265548,2.3917885134456682,1.0,1.0,1.5075831063773642e-17
13300,0.4553448329676422,2.3910299703677684,1.0,1.0,1.517906316466932e-17
13400,0.45698474725940047,2.3902724297449605,1.0,1.0,1.528231468359408e-17
13500,0.4586128500320422,2.3895158934118896,1.0,1.0,1.5385586784743908e-17
13600,0.46022930206023666,2.388760363145287,1.0,1.0,1.548888060870441e-17
13700,0.46183426180522824,2.388005840664302,1.0,1.0,1.559219727322527e-17
13800,0.4634278854561043,2.3872523276308306,1.0,1.0,1.5695537874006243e-17
13900,0.46501032697022915,2.38649982564985,1.0,1.0,1.579890348543978e-17
14000,0.46658173811286574,2.385748336269747,1.0,1.0,1.5902295161348744e-17
14100,0.46814226849600965,2.38499786098265,1.0,1.0,1.600571393570604e-17
14200,0.4696920656164456,2.384248401224758,1.0,1.0,1.610916082333818e-17
14300,0.4712312748930459,2.383499958376671,1.0,1.0,1.621263682061325e-17
14400,0.47276003970333336,2.3827525337637203,1.0,1.0,1.6316142906112174e-17
14500,0.4742785014193239,2.3820061286562955,1.0,1.0,1.6419680041291904e-17
14600,0.47578679944266267,2.381260744270172,1.0,1.0,1.6523249171133107e-17
14700,0.4772850712390719,2.3805163817668387,1.0,1.0,1.662685122477409e-17
14800,0.4787734523721263,2.379773042253824,1.0,1.0,1.6730487116128865e-17
14900,0.4802520765363712,2.379030726785021,1.0,1.0,1.6834157744508116e-17
15000,0.48172107558980004,2.378289436361009,1.0,1.0,1.6937863995216014e-17
15100,0.48318057958569965,2.377549171929381,1.0,1.0,1.7041606740141328e-17
15200,0.48463071680389,2.37680993438506,1.0,1.0,1.714538683833648e-17
15300,0.486071613781355,2.3760717245706235,1.0,1.0,1.724920513659662e-17
15400,0.4875033953422926,2.3753345432766193,1.0,1.0,1.7353062470024014e-17
15500,0.48892618462759174,2.3745983912418858,1.0,1.0,1.7456959662578078e-17
15600,0.49034010312374493,2.373863269153866,1.0,1.0,1.7560897527634023e-17
15700,0.49174527069122015,2.373129177648923,1.0,1.0,1.7664876868522808e-17
15800,0.4931418055922888,2.3723961173126535,1.0,1.0,1.7768898479066663e-17
15900,0.4945298245183352,2.3716640886801983,1.0,1.0,1.7872963144114705e-17
16000,0.4959094426166508,2.3709330922365535,1.0,1.0,1.797707164006679e-17
16100,0.49728077351673033,2.3702031284168767,1.0,1.0,1.8081224735398076e-17
16200,0.4986439293560738,2.3694741976067952,1.0,1.0,1.8185423191178017e-17
16300,0.49999902080551334,2.36874630014271,1.0,1.0,1.828966776158324e-17
16400,0.501346157094066,2.3680194363120983,1.0,1.0,1.8393959194413287e-17
16500,0.5026854460333323,2.3672936063538144,1.0,1.0,1.8498298231597668e-17
16600,0.5040169940414441,2.3665688104583897,1.0,1.0,1.8602685609708695e-17
16700,0.5053409061665706,2.365845048768329,1.0,1.0,1.8707122060462795e-17
16800,0.5066572861099976,2.365122321378406,1.0,1.0,1.8811608311233812e-17
16900,0.5079662362487867,2.3644006283359564,1.0,1.0,1.891614508555788e-17
17000,0.5092678576580187,2.363679969641169,1.0,1.0,1.9020733103639098e-17
17100,0.5105622501326382,2.3629603452473753,1.0,1.0,1.912537308285907e-17
17200,0.5118495122089034,2.362241755061336,1.0,1.0,1.9230065738289292e-17
17300,0.5131297411854462,2.361524198943527,1.0,1.0,1.9334811783206645e-17
17400,0.5144030331439584,2.360807676708421,1.0,1.0,1.9439611929602145e-17
17500,0.5156694829695073,2.3600921881247694,1.0,1.0,1.9544466888708306e-17
17600,0.5169291843704892,2.35937773291588,1.0,1.0,1.9649377371519143e-17
17700,0.5181822298982257,2.358664310759894,1.0,1.0,1.9754344089321817e-17
17800,0.5194287109662187,2.35795192129006,1.0,1.0,1.9859367754232377e-17
17900,0.5206687178690582,2.3572405640950076,1.0,1.0,1.9964449079741004e-17
18000,0.5219023398010071,2.3565302387190137,1.0,1.0,2.0069588781254372e-17
18100,0.5231296648742498,2.3558209446622738,1.0,1.0,2.0174787576657214e-17
18200,0.5243507801368307,2.3551126813811654,1.0,1.0,2.0280046186886152e-17
18300,0.5255657715902748,2.3544054482885115,1.0,1.0,2.038536533649654e-17
18400,0.5267747242069059,2.3536992447538423,1.0,1.0,2.0490745754255638e-17
18500,0.5279777219468633,2.352994070103652,1.0,1.0,2.0596188173741343e-17
18600,0.5291748477748267,2.352289923621657,1.0,1.0,2.0701693333958927e-17
18700,0.5303661836764535,2.351586804549048,1.0,1.0,2.080726197996266e-17
18800,0.5315518106745349,2.3508847120847443,1.0,1.0,2.0912894863501327e-17
18900,0.5327318088448764,2.3501836453856404,1.0,1.0,2.1018592743675573e-17
19000,0.5339062573319109,2.349483603566855,1.0,1.0,2.1124356387612945e-17
19100,0.5350752343640434,2.3487845857019747,1.0,1.0,2.1230186571166647e-17
19200,0.5362388172687426,2.3480865908232977,1.0,1.0,2.1336084079626548e-17
19300,0.5373970824873737,2.3473896179220732,1.0,1.0,2.1442049708454886e-17
19400,0.5385501055897898,2.3466936659487385,1.0,1.0,2.1548084264056075e-17
19500,0.539697961288674,2.3459987338131563,1.0,1.0,2.1654188564547487e-17
19600,0.5408407234536484,2.3453048203848463,1.0,1.0,2.1760363440584545e-17
19700,0.541978465125149,2.344611924493217,1.0,1.0,2.18666097361914e-17
19800,0.5431112585280717,2.3439200449277946,1.0,1.0,2.1972928309637806e-17
19900,0.544239175085197,2.3432291804384477,1.0,1.0,2.2079320034342707e-17
20000,0.545362285430396,2.3425393297356134,1.0,1.0,2.2185785799809885e-17
20100,0.5464806594216214,2.341850491490517,1.0,1.0,2.2292326512607643e-17
20200,0.547594366153692,2.3411626643353936,1.0,1.0,2.2398943097381854e-17
20300,0.5487034739708682,2.3404758468637024,1.0,1.0,2.250563649791734e-17
20400,0.5498080504792313,2.339790037630343,1.0,1.0,2.2612407678241162e-17
20500,0.5509081625588662,2.339105235151869,1.0,1.0,2.2719257623772686e-17
20600,0.5520038763758495,2.3384214379066957,1.0,1.0,2.2826187342539162e-17
20700,0.5530952573940532,2.33773864433531,1.0,1.0,2.2933197866427642e-17
20800,0.5541823703867631,2.3370568528404747,1.0,1.0,2.3040290252510016e-17
20900,0.5552652794481203,2.336376061787433,1.0,1.0,2.3147465584430318e-17
21000,0.556344048004384,2.3356962695041092,1.0,1.0,2.3254724973858288e-17
21100,0.557418738825024,2.3350174742813077,1.0,1.0,2.3362069562015695e-17
21200,0.5584894140336488,2.3343396743729095,1.0,1.0,2.3469500521286318e-17
21300,0.5595561351187657,2.333662867996066,1.0,1.0,2.3577019056906668e-17
21400,0.5606189629443854,2.3329870533313932,1.0,1.0,2.3684626408748057e-17
21500,0.5616779577604677,2.3323122285231594,1.0,1.0,2.3792323853200862e-17
21600,0.5627331792132149,2.331638391679475,1.0,1.0,2.3900112705158642e-17
21700,0.5637846863552212,2.330965540872476,1.0,1.0,2.400799432011782e-17
21800,0.5648325376554717,2.3302936741385105,1.0,1.0,2.4115970096400746e-17
21900,0.565876791009205,2.3296227894783166,1.0,1.0,2.4224041477506584e-17
22000,0.5669175037476365,2.3289528848572045,1.0,1.0,2.4332209954610585e-17
22100,0.5679547326475479,2.328283958205232,1.0,1.0,2.44404770692099e-17
22200,0.5689885339407491,2.3276160074173795,1.0,1.0,2.4548844415938776e-17
22300,0.5700189633234104,2.326949030353724,1.0,1.0,2.465731364556285e-17
22400,0.5710460759652759,2.326283024839608,1.0,1.0,2.476588646816877e-17
22500,0.5720699265187547,2.32561798866581,1.0,1.0,2.4874564656562797e-17
22600,0.5730905691278995,2.3249539195887103,1.0,1.0,2.4983350049901562e-17
22700,0.5741080574372718,2.324290815330456,1.0,1.0,2.5092244557567553e-17
22800,0.5751224446007009,2.323628673579123,1.0,1.0,2.5201250163321042e-17
22900,0.5761337832899375,2.322967491988901,1.0,1.0,2.5310217894047737e-17
23000,0.5771421242384743,2.322307268180281,1.0,1.0,2.541911158531302e-17
23100,0.5781475173034377,2.3216479997402417,1.0,1.0,2.5527934014767183e-17
23200,0.579150011846656,2.3209896842224325,1.0,1.0,2.5636687861400163e-17
23300,0.5801496567422366,2.320332319147355,1.0,1.0,2.574537571050757e-17
23400,0.5811465003840168,2.319675902002541,1.0,1.0,2.58540000583387e-17
23500,0.5821405906928916,2.31902043024273,1.0,1.0,2.596256331647571e-17
23600,0.58313197512402,2.3183659012900435,1.0,1.0,2.607106781594207e-17
23700,0.5841207006739082,2.317712312534157,1.0,1.0,2.6179515811076716e-17
23800,0.5851068138873767,2.3170596613324697,1.0,1.0,2.6287909483173857e-17
23900,0.5860903608644107,2.316407945010272,1.0,1.0,2.6396250943926642e-17
24000,0.587071387266895,2.3157571608609127,1.0,1.0,2.6504542238666835e-17
24100,0.5880499383252353,2.31510730614596,1.0,1.0,2.6612785349423498e-17
24200,0.5890260588448678,2.3144583780953654,1.0,1.0,2.672098219782413e-17
24300,0.5899997932126608,2.3138103739076215,1.0,1.0,2.6829134647823805e-17
24400,0.5909711854032051,2.3131632907499196,1.0,1.0,2.6937244508295556e-17
24500,0.5919402789850005,2.3125171257583053,1.0,1.0,2.704531353548361e-17
24600,0.5929071171265345,2.311871876037831,1.0,1.0,2.715334343532265e-17
24700,0.5938717426022612,2.3112275386627084,1.0,1.0,2.7261335865640757e-17
24800,0.5948341977984751,2.3105841106764555,1.0,1.0,2.736929243825253e-17
24900,0.5957945247190866,2.309941589092046,1.0,1.0,2.7477214720939168e-17
25000,0.5967527649912983,2.3092999708920536,1.0,1.0,2.7585104239330773e-17
25100,0.5977089598711836,2.308659253028796,1.0,1.0,2.7692962478698407e-17
25200,0.5986631502491709,2.3080194324244765,1.0,1.0,2.7800790885656366e-17
25300,0.5996153766554321,2.307380505971323,1.0,1.0,2.790859086978689e-17
25400,0.6005656792651796,2.3067424705317254,1.0,1.0,2.8016363805176277e-17
25500,0.6015140979038712,2.306105322938375,1.0,1.0,2.812411103188913e-17
25600,0.6024606720523257,2.305469059994394,1.0,1.0,2.8231833857363416e-17
25700,0.6034054408517484,2.3048336784734715,1.0,1.0,2.833953355775187e-17
25800,0.6043484431086716,2.304199175119993,1.0,1.0,2.844721137919025e-17
25900,0.6052897172998081,2.3035655466491693,1.0,1.0,2.855486853901615e-17
26000,0.6062293015768202,2.3029327897471648,1.0,1.0,2.866250622692917e-17
26100,0.6071672337710041,2.3023009010712214,1.0,1.0,2.87701256061047e-17
26200,0.6081035513978962,2.301669877249785,1.0,1.0,2.887772781424597e-17
26300,0.6090382916617932,2.3010397148826245,1.0,1.0,2.898531396460153e-17
26400,0.6099714914601984,2.3004104105409566,1.0,1.0,2.909288514693902e-17
