Timestep (s),Sum Voltage (V),Carry Out Voltage (V),Sum Error Rate (Dimless),Carry Out Error Rate (Dimless),Energy Dissipation (J)
0,0.00691646174141851,2.4991498750703873,1.0,0.0002129344492738383,1.8293485974780487e-19
100,0.013730683716411058,2.498299978989078,1.0,0.00022279945537417856,3.6506729475541837e-19
200,0.020443597831878876,2.497450318790887,1.0,0.00023308681189515568,5.464175983226121e-19
300,0.027057832444769305,2.496600901625093,1.0,0.0002438128336919032,7.270047506471007e-19
400,0.03357539861755227,2.495751734747463,1.0,0.00025499437961340465,9.06847417355204e-19
500,0.03999825497303218,2.4949028255125665,1.0,0.0002666488667233402,1.0859637370502033e-18
600,0.046328309411513724,2.494054181366369,1.0,0.00027879428472843415,1.2643713425189874e-18
700,0.05256742075996834,2.493205809839096,1.0,0.00029144921061130535,1.442087380969357e-18
800,0.05871740035660207,2.492357718538358,1.0,0.00030463282345882803,1.6191285333876013e-18
900,0.06478001357365477,2.4915099151425264,1.0,0.00031836491948844525,1.7955110330753545e-18
1000,0.0707569812811687,2.4906624073943546,1.0,0.00033266592726544086,1.9712506833741575e-18
1100,0.0766499812545029,2.489815203094832,1.0,0.00034755692310040054,2.1463628746691462e-18
1200,0.0824606495280204,2.488968310097267,1.0,0.0003630596466319691,2.320862600682127e-18
1300,0.08819058169736106,2.488121736301587,1.0,0.0003791965165785838,2.4947644741031286e-18
1400,0.09384133417262822,2.487275489648854,1.0,0.0003959906466607377,2.668082741610412e-18
1500,0.09941442538452318,2.486429578115981,1.0,0.00041346586168344857,2.8408312982937354e-18
1600,0.10491133694559167,2.4855840097106503,1.0,0.0004316467137714941,3.0130237015399403e-18
1700,0.11033351476849326,2.4847387924664175,1.0,0.00045055849875252907,3.184673184385282e-18
1800,0.1156823701431097,2.483893934438007,1.0,0.00047022727268053455,3.3557926683825048e-18
1900,0.1209592807743034,2.4830494436967814,1.0,0.0004906798684868319,3.52639477601756e-18
2000,0.1261655917820292,2.482205328326385,1.0,0.0005119439127569958,3.696491842683409e-18
2100,0.13130261666529117,2.481361596418556,1.0,0.0005340478426205664,3.866095928248418e-18
2200,0.13637163823156484,2.4805182560690953,1.0,0.0005570209227442335,4.035218828258646e-18
2300,0.14137390949310777,2.479675315373997,1.0,0.000580893262420723,4.203872084767916e-18
2400,0.1463106545314948,2.478832782425726,1.0,0.0006056958327433914,4.372066996842138e-18
2500,0.1511830693317587,2.4779906653096435,1.0,0.000631460483853985,4.539814630757384e-18
2600,0.15599232258733153,2.4771489721005713,1.0,0.0006582199622550133,4.707125829907998e-18
2700,0.16073955647702226,2.4763077108594946,1.0,0.0006860079281751919,4.874011224440701e-18
2800,0.1654258874151258,2.475466889630395,1.0,0.0007148589729747412,5.040481240654481e-18
2900,0.17005240677579544,2.4746265164372128,1.0,0.0007448086365809958,5.206546110168321e-18
3000,0.17462018159269194,2.4737865992809307,1.0,0.0007758934249406657,5.372215878883851e-18
3100,0.17913025523488826,2.4729471461367782,1.0,0.0008081508274757621,5.537500415763951e-18
3200,0.1835836480599793,2.472108164951551,1.0,0.0008416193345328615,5.702409421438482e-18
3300,0.187981358045332,2.4712696636410416,1.0,0.0008763384548061692,5.866952436674863e-18
3400,0.19232436139827364,2.470431650087577,1.0,0.0009123487327300506,6.031138850703092e-18
3500,0.19661361314609357,2.4695941321376638,1.0,0.0009496917658151638,6.194977909449495e-18
3600,0.20085004770661855,2.4687571175997305,1.0,0.000988410221927305,6.358478723670212e-18
3700,0.20503457944011305,2.4679206142419705,1.0,0.0010285478564802109,6.5216502770246896e-18
3800,0.20916810318323734,2.467084629790278,1.0,0.0010701495295398766,6.684501434092142e-18
3900,0.2132514947657317,2.4662491719262754,1.0,0.0011132612228126337,6.8470409483718886e-18
4000,0.2172856115104856,2.46541424828543,1.0,0.0011579300565149886,7.009277470272465e-18
4100,0.22127129271764565,2.4645798664552547,1.0,0.0012042043060949137,7.171219555119947e-18
4200,0.2252093601333084,2.463746033973594,1.0,0.001252133418800483,7.332875671219225e-18
4300,0.22910061840343868,2.4629127583269876,1.0,0.0013017680300707601,7.494254207973917e-18
4400,0.23294585551351243,2.4620800469491115,1.0,0.0013531599797359517,7.655363484101547e-18
4500,0.23674584321443326,2.4612479072192976,1.0,0.0014063623280091697,7.816211755995312e-18
4600,0.24050133743523913,2.46041634646112,1.0,0.0014614293712524873,7.97680722621525e-18
4700,0.24421307868304354,2.4595853719410576,1.0,0.0015184166574983005,8.137158052201289e-18
4800,0.24788179243072025,2.4587549908672197,1.0,0.0015773810017096768,8.297272355192369e-18
4900,0.251508189492753,2.4579252103881397,1.0,0.0016383805007618157,8.457158229430485e-18
5000,0.25509296638965556,2.4570960375916324,1.0,0.0017014745481246374,8.616823751686271e-18
5100,0.2586368057014325,2.456267479503712,1.0,0.0017667238482290681,8.776276991130434e-18
5200,0.262140376410402,2.4554395430875693,1.0,0.001834190430500593,8.935526019654919e-18
5300,0.2656043342337838,2.4546122352426076,1.0,0.001903937663037758,9.094578922658586e-18
5400,0.26902932194644485,2.453785562803533,1.0,0.0019760302659169726,9.253443810394837e-18
5500,0.2724159696940946,2.4529595325395004,1.0,0.002050534324110842,9.412128829956871e-18
5600,0.27576489529729487,2.4521341511533086,1.0,0.0021275172999914993,9.570642177975665e-18
5700,0.2790767045465962,2.4513094252806495,1.0,0.0022070480454090546,9.728992114150021e-18
5800,0.28235199148910045,2.4504853614894024,1.0,0.0022891968133165186,9.88718697571418e-18
5900,0.28559133870675346,2.4496619662789785,1.0,0.002374035268934982,1.004523519296843e-17
6000,0.28879531758664695,2.448839246079709,1.0,0.0024616365004249685,1.0203145306049452e-17
6100,0.29196448858359203,2.448017207252278,1.0,0.0025520750290579652,1.0360925983099669e-17
6200,0.29509940147524183,2.4471958560871996,1.0,0.0026454268188583763,1.0518586040036438e-17
6300,0.298200595609996,2.446375198804332,1.0,0.0027417692857075737,1.0676134462179898e-17
6400,0.30126860014793905,2.445555241552437,1.0,0.0028411813058804025,1.0833580428018496e-17
6500,0.30430393429504576,2.4447359904087738,1.0,0.002943743224004036,1.0990933335440226e-17
6600,0.3073071075308732,2.4439174513787325,1.0,0.0030495368604144257,1.1148202830843298e-17
6700,0.3102786198299419,2.4430996303955026,1.0,0.0031586455178963524,1.1305250165579309e-17
6800,0.3132189618770376,2.4422825333197773,1.0,0.0032711539877856577,1.1461892494617196e-17
6900,0.3161286152766145,2.44146616593949,1.0,0.0033871485554159975,1.1618087186628949e-17
7000,0.3190080527564865,2.4406505339695848,1.0,0.003506717004893023,1.1773846368894197e-17
7100,0.3218577383660174,2.439835643051819,1.0,0.0036299486231792244,1.1929181521581278e-17
7200,0.3246781276689489,2.439021498754594,1.0,0.0037569342034674547,1.2084103535287449e-17
7300,0.32746966793106785,2.438208106572817,1.0,0.003887766047832475,1.2238622761738845e-17
7400,0.3302327983028703,2.4373954719277924,1.0,0.004022537969138096,1.2392749058647956e-17
7500,0.3329679499973546,2.436583600167137,1.0,0.00416134529218537,1.2546491829559296e-17
7600,0.3356755464631536,2.435772496564726,1.0,0.0043042848540876255,1.2699860059362989e-17
7700,0.3383560035530866,2.434962166320661,1.0,0.004451455003851912,1.28528623460767e-17
7800,0.34100972968831994,2.4341526145612664,1.0,0.004602955601156644,1.3005506929368213e-17
7900,0.34363712601825114,2.433343846339107,1.0,0.004758888014304796,1.3157801716232701e-17
8000,0.3462385865762563,2.4325358666330295,1.0,0.004919355117344315,1.330975430418602e-17
8100,0.3488144984314227,2.431728680348226,1.0,0.005084461286335329,1.3461372002264246e-17
8200,0.3513652418363964,2.4309222923163203,1.0,0.0052543123947556,1.361266185009238e-17
8300,0.3538911903714562,2.4301167072954737,1.0,0.005429015808027682,1.3763630635246492e-17
8400,0.3563927110849288,2.4293119299705115,1.0,0.0056086803771555616,1.3914284909092014e-17
8500,0.35887016463006555,2.4285079649530683,1.0,0.005793416431461251,1.4064631001275705e-17
8600,0.3613239053984667,2.4277048167817523,1.0,0.005983335770405995,1.4214675033005725e-17
8700,0.3637542816501778,2.4269024899223286,1.0,0.00617855165448844,1.43644229292565e-17
8800,0.36616163564054477,2.426100988767918,1.0,0.0063791787952056644,1.451388042999923e-17
8900,0.36854630374392094,2.425300317639214,1.0,0.006585333344072408,1.46630531005654e-17
9000,0.37090861657433305,2.4245004807847144,1.0,0.0067971328806828435,1.4811946341216746e-17
9100,0.3732488991031817,2.423701482380971,1.0,0.007014696399813336,1.4960565396006868e-17
9200,0.3755674707740601,2.4229033265328517,1.0,0.007238144297550875,1.510891536100395e-17
9300,0.37786464561479505,2.4221060172738182,1.0,0.0074675983564482795,1.525700119191726e-17
9400,0.3801407323467659,2.4213095585662185,1.0,0.007703181729692088,1.5404827711202945e-17
9500,0.38239603449159637,2.42051395430159,1.0,0.007945018924280789,1.5552399614683092e-17
9600,0.3846308504752871,2.4197192083009775,1.0,0.008193235783210517,1.5699721477710138e-17
9700,0.38684547372986516,2.4189253243152655,1.0,0.008447959466658328,1.5846797760946552e-17
9800,0.3890401927926117,2.418132306025517,1.0,0.008709318432164936,1.5993632815752875e-17
9900,0.3912152914029561,2.417340157043329,1.0,0.008977442413809378,1.6140230889256152e-17
10000,0.39337104859708016,2.4165488809111957,1.0,0.009252462400379247,1.628659612908687e-17
10100,0.3955077388003081,2.4157584811028845,1.0,0.009534510612527858,1.643273258783798e-17
10200,0.3976256319173451,2.4149689610238196,1.0,0.009823720478924991,1.6578644227252155e-17
10300,0.3997249934204142,2.4141803240114785,1.0,0.010120226611396,1.6724334922171707e-17
10400,0.4018060844353605,2.413392573335794,1.0,0.010424164779054612,1.686980846425346e-17
10500,0.40386916182577665,2.412605712199569,1.0,0.01073567188142699,1.7015068565475707e-17
10600,0.4059144782751912,2.4118197437388975,1.0,0.011054885920575241,1.716011886145109e-17
10700,0.40794228236739766,2.4110346710235926,1.0,0.011381945972217977,1.7304962914558768e-17
10800,0.4099528186649398,2.410250497057627,1.0,0.011716992155855754,1.744960421690514e-17
10900,0.4119463277858394,2.4094672247795756,1.0,0.01206016560390788,1.7594046193128094e-17
11000,0.4139230464785914,2.4086848570630686,1.0,0.012411608429861998,1.7738292203060773e-17
11100,0.4158832076954729,2.4079033967172507,1.0,0.012771463695446572,1.78823455442493e-17
11200,0.4178270406642224,2.4071228464872463,1.0,0.01313987537683392,1.8026209454350032e-17
11300,0.41975477095812325,2.40634320905463,1.0,0.013516988329883017,1.8169887113404655e-17
11400,0.4216666205645396,2.4055644870379074,1.0,0.013902948254425618,1.8313381646005075e-17
11500,0.42356280795193546,2.404786682992994,1.0,0.014297901657614354,1.8456696123350605e-17
11600,0.42544354813543395,2.4040097994137066,1.0,0.014701995816338131,1.8599833565209603e-17
11700,0.42730905274093167,2.403233838732257,1.0,0.01511537873871771,1.874279694178732e-17
11800,0.4291595300678308,2.402458803319749,1.0,0.015538199124695007,1.888558917550873e-17
11900,0.4309951851503995,2.4016846954866815,1.0,0.015970606325728776,1.9028213142718432e-17
12000,0.43281621981782187,2.4009115174834563,1.0,0.016412750303610335,1.9170671675300895e-17
12100,0.43462283275294505,2.4001392715008896,1.0,0.016864781588416422,1.931296756223191e-17
12200,0.4364152195497763,2.399367959670726,1.0,0.017326851235612506,1.9455103551064058e-17
12300,0.43819357276975607,2.398597584066157,1.0,0.0177991107823241,1.959708234933737e-17
12400,0.43995808199683073,2.397828146702345,1.0,0.01828171220279262,1.9738906625940488e-17
12500,0.44170893389136423,2.397059649536946,1.0,0.018774807863037424,1.988057901240802e-17
12600,0.4434463122429174,2.396292094470639,1.0,0.01927855047473659,2.0022102104162605e-17
12700,0.44517039802191705,2.3955254833476567,1.0,0.01979309304835053,2.0163478461707664e-17
12800,0.44688136943024426,2.394759817956317,1.0,0.020318588845508745,2.030471061176863e-17
12900,0.44857940195077545,2.393995100029561,1.0,0.020855191330676925,2.044580104839376e-17
13000,0.45026466839589496,2.3932313312454894,1.0,0.021403054122130283,2.0586752234002828e-17
13100,0.45193733895500326,2.3924685132279024,1.0,0.021962330942252306,2.0727566600396277e-17
13200,0.4535975812410523,2.391706647546841,1.0,0.022533175567183816,2.0868246549727795e-17
13300,0.45524556033612684,2.390945735719131,1.0,0.02311574177584441,2.1008794455436994e-17
13400,0.4568814388360941,2.3901857792089247,1.0,0.023710183298351284,2.1149212663144194e-17
13500,0.4585053768943493,2.38942677942825,1.0,0.02431665376386083,2.128950349151534e-17
13600,0.46011753226467195,2.388668737737556,1.0,0.02493530664785515,2.1429669233087718e-17
13700,0.46171806034322127,2.387911655446259,1.0,0.025566295218903856,2.156971215507384e-17
13800,0.4633071142096867,2.387155533813294,1.0,0.026209772484925398,2.1709634500126147e-17
13900,0.4648848446676115,2.386400374047662,1.0,0.02686589113897231,2.1849438487079605e-17
14000,0.46645140028391896,2.3856461773089794,1.0,0.027534803504575156,2.1989126311666198e-17
14100,0.4680069274276473,2.3848929447080303,1.0,0.028216661480661265,2.2128700147203357e-17
14200,0.46955157030792183,2.384140677307315,1.0,0.028911616486090308,2.2268162145258296e-17
14300,0.47108547101117554,2.3833893761216007,1.0,0.029619819403824077,2.2407514436285665e-17
14400,0.47260876953764047,2.382639042118472,1.0,0.03034142052476818,2.254675913025452e-17
14500,0.47412160383712454,2.381889676218882,1.0,0.03107656949130555,2.2685898317235086e-17
14600,0.47562410984408854,2.381141279297701,1.0,0.03182541524056426,2.282493406798275e-17
14700,0.477116421512045,2.380393852184267,1.0,0.032588105947436774,2.296386843449483e-17
14800,0.47859867084728613,2.3796473956629347,1.0,0.033364788968099246,2.310270345055078e-17
14900,0.48007098794196734,2.378901910473624,1.0,0.03415561077910345,2.3241441132229996e-17
15000,0.48153350100654874,2.3781573973123673,1.0,0.034960716926927704,2.3380083478424385e-17
15100,0.4829863364016171,2.377413856831857,1.0,0.035780251963266174,2.3518632471319724e-17
15200,0.4844296186691023,2.3766712896419904,1.0,0.03661435939083757,2.3657090076876704e-17
15300,0.4858634705628965,2.3759296963104175,1.0,0.037463181604894036,2.3795458245285456e-17
15400,0.48728801307889724,2.3751890773630815,1.0,0.03832685983541695,2.393373891141338e-17
15500,0.48870336548447707,2.374449433284763,1.0,0.03920553408931837,2.4071921546215626e-17
15600,0.49010964534740287,2.3737107645196223,1.0,0.04009934309268137,2.4209956261329853e-17
15700,0.4915069685642114,2.372973071471737,1.0,0.04100842423307682,2.4347845970185937e-17
15800,0.4928954493880531,2.372236354505642,1.0,0.04193291350198236,2.4485593534962104e-17
15900,0.49427520045601403,2.371500613946867,1.0,0.042872945437335996,2.4623201768308143e-17
16000,0.49564633281593096,2.3707658500824684,1.0,0.043828653066264156,2.4760673434969845e-17
16100,0.49700895595270506,2.3700320631615677,1.0,0.044800167848003225,2.4898011253335778e-17
16200,0.4983631778141307,2.3692992533958788,1.0,0.04578761961706235,2.5035217896903603e-17
16300,0.49970910483624587,2.36856742096024,1.0,0.04679113652664524,2.5172295995671146e-17
16400,0.5010468419682157,2.3678365659931417,1.0,0.04781084499237176,2.5309248137464247e-17
16500,0.50237649269676,2.3671066885972514,1.0,0.048846869636328005,2.544607686919494e-17
16600,0.503698159070134,2.3663777888399378,1.0,0.04989933323147677,2.5582784698063037e-17
16700,0.5050119417216703,2.365649866753792,1.0,0.05096835664646071,2.5719374092699827e-17
16800,0.506317939892897,2.3649229223371484,1.0,0.052054058790826474,2.5855847484260793e-17
16900,0.5076162514562292,2.3641969555545987,1.0,0.05315655656070595,2.599220726746683e-17
17000,0.5089069729372588,2.3634719663375097,1.0,0.054275964784980646,2.6128455801599542e-17
17100,0.510190199536636,2.362747954584533,1.0,0.055412396171962364,2.6264595411452807e-17
17200,0.5114660251515634,2.3620249201621166,1.0,0.056565961256617614,2.6400628388244057e-17
17300,0.512734542396901,2.3613028629050117,1.0,0.05773676834837116,2.6536556990482183e-17
17400,0.5139958426258944,2.3605817826167765,1.0,0.058924923479511726,2.6672383444807302e-17
17500,0.5152500159505392,2.359861679070279,1.0,0.0601305303542331,2.6808109946783572e-17
17600,0.5164971512615762,2.3591425520081972,1.0,0.06135369029833537,2.6943738661671912e-17
17700,0.5177373362481382,2.358424401143513,1.0,0.06259450220962548,2.7079271725161596e-17
17800,0.5189706574170486,2.357707226160009,1.0,0.06385306250902612,2.721471124407961e-17
17900,0.520197200111779,2.356991026712758,1.0,0.06512946509243944,2.7350059297068266e-17
18000,0.5214170485310772,2.3562758024286112,1.0,0.06642380128338288,2.7485317935235515e-17
18100,0.5226302857472653,2.3555615529066833,1.0,0.067736159786423,2.7620489182787237e-17
18200,0.5238369937242219,2.3548482777188355,1.0,0.06906662664143692,2.7755575037626812e-17
18300,0.5250372533350474,2.3541359764101535,1.0,0.07041528517872864,2.7890577471938e-17
18400,0.5262311443794296,2.353424648499425,1.0,0.071782215975016,2.802549843274589e-17
18500,0.5274187456007,2.3527142934796106,1.0,0.07316749681032586,2.816033984245661e-17
18600,0.5286001347026016,2.3520049108183168,1.0,0.07457120262580885,2.8295103599376895e-17
18700,0.5297753883657673,2.35129649995826,1.0,0.07599340548250566,2.842979157821841e-17
18800,0.530944582263913,2.350589060317732,1.0,0.07743417452108325,2.856440563058168e-17
18900,0.5321077910797568,2.3498825912910584,1.0,0.07889357592256419,2.8698947585425693e-17
19000,0.5332650885206632,2.349177092249057,1.0,0.08037167287007274,2.8833419249520585e-17
19100,0.5344165473340226,2.3484725625394907,1.0,0.08186852551161183,2.896782240788659e-17
19200,0.5355622393223681,2.3477690014875185,1.0,0.08338419092389904,2.910215882421837e-17
19300,0.536702235358238,2.3470664083961426,1.0,0.08491872307727533,2.9236430241293313e-17
19400,0.5378366053987852,2.3463647825466505,1.0,0.08647217280170993,2.937063838137178e-17
19500,0.5389654185001427,2.345664123199057,1.0,0.0880445877539141,2.9504784946580207e-17
19600,0.540088742831544,2.34496442959254,1.0,0.08963601238558483,2.963887161928698e-17
19700,0.54120664568921,2.344265700945873,1.0,0.09124648791279588,2.977290006246312e-17
19800,0.5423191935100002,2.343567936457856,1.0,0.09287605228654927,2.990687192003572e-17
19900,0.5434264518848405,2.3428711353077403,1.0,0.0945247401645033,3.0040788817227605e-17
20000,0.5445284855719217,2.3421752966556526,1.0,0.09619258288389188,3.017465236089261e-17
20100,0.5456253585096836,2.341480419643012,1.0,0.0978796084356518,3.030846413983698e-17
20200,0.5467171338295812,2.3407865033929474,1.0,0.09958584143976357,3.044222572513208e-17
20300,0.5478038738686405,2.340093547010707,1.0,0.10131130312182823,3.057593867042183e-17
20400,0.5488856401818075,2.3394015495840677,1.0,0.10305601129088071,3.070960451221973e-17
20500,0.5499624935540931,2.3387105101837387,1.0,0.1048199803184634,3.0843224770200286e-17
20600,0.5510344940125192,2.3380204278637633,1.0,0.10660322111895082,3.097680094748066e-17
20700,0.552101700837869,2.337331301661914,1.0,0.10840574113116008,3.11103345308961e-17
20800,0.5531641725762452,2.3366431306000863,1.0,0.11022754430123372,3.1243826991271816e-17
20900,0.5542219670504392,2.3359559136846886,1.0,0.11206863106681098,3.1377279783681787e-17
21000,0.5552751413711159,2.3352696499070276,1.0,0.11392899834249581,3.151069434771099e-17
21100,0.5563237519478171,2.334584338243689,1.0,0.1158086395066299,3.1644072107701414e-17
21200,0.5573678544997849,2.3338999776569165,1.0,0.11770754438936648,3.177741447300107e-17
21300,0.5584075040666119,2.333216567094986,1.0,0.11962569926205802,3.191072283820315e-17
21400,0.5594427550187199,2.332534105492574,1.0,0.12156308682796235,3.2043998583384035e-17
21500,0.5604736610676682,2.331852591771128,1.0,0.12351968621425946,3.217724307432972e-17
