Timestep (s),Sum Voltage (V),Carry Out Voltage (V),Sum Error Rate (Dimless),Carry Out Error Rate (Dimless),Energy Dissipation (J)
0,0.00691646174141851,0.006923166605265571,1.0,1.0,2.1188753000248054e-19
100,0.013773729551739944,0.013744828665156448,1.0,1.0,4.228111295501459e-19
200,0.020573810507522584,0.020467064765742782,1.0,1.0,6.327896619037172e-19
300,0.02731871150989975,0.027091899113082234,1.0,1.0,8.418415999656197e-19
400,0.034010369821028494,0.03362130333387454,1.0,1.0,1.049984970760714e-18
500,0.04065065570996419,0.04005719820186097,1.0,1.0,1.2572373717017408e-18
600,0.04724137497803951,0.04640145530251941,1.0,1.0,1.4636159862344632e-18
700,0.05378427137000877,0.05265589862881942,1.0,1.0,1.6691378970407884e-18
800,0.06028102887606286,0.05882230611386504,1.0,1.0,1.8738193220071093e-18
900,0.06673327393246069,0.06490241110950222,1.0,1.0,2.0776763076059045e-18
1000,0.07314257752406472,0.07089790380204358,1.0,1.0,2.2807245428543457e-18
1100,0.07951045719433723,0.0768104325771682,1.0,1.0,2.4829793721174203e-18
1200,0.08583837896748452,0.08264160533878022,1.0,1.0,2.684455807427982e-18
1300,0.09212775918717012,0.08839299076426223,1.0,1.0,2.885168540389191e-18
1400,0.09837996627598157,0.09406611952615804,1.0,1.0,3.0851319536595668e-18
1500,0.10459632241959683,0.09966248546301296,1.0,1.0,3.2843601320478875e-18
1600,0.11077810517938792,0.1051835467102074,1.0,1.0,3.482866873251565e-18
1700,0.11692654903699037,0.11063072677729163,1.0,1.0,3.680665698250015e-18
1800,0.12304284687417864,0.11600541560861653,1.0,1.0,3.8777698613534075e-18
1900,0.12912815139120712,0.12130897058292245,1.0,1.0,4.074192359980511e-18
2000,0.13518357646660598,0.126542717488734,1.0,1.0,4.269945944125172e-18
2100,0.1412101984612616,0.13170795146472516,1.0,1.0,4.4650431255544726e-18
2200,0.14720905746946228,0.1368059379012617,1.0,1.0,4.6594961867764905e-18
2300,0.15318115851944616,0.1418379133146671,1.0,1.0,4.853317189750109e-18
2400,0.15912747272585553,0.14680508618943536,1.0,1.0,5.046517984386676e-18
2500,0.16504893839637702,0.15170806713558446,1.0,1.0,5.239110544993823e-18
2600,0.17094646209472536,0.15654851924519358,1.0,1.0,5.431106046124616e-18
2700,0.17682091966201946,0.16132756767186707,1.0,1.0,5.622515754833369e-18
2800,0.18267315719849295,0.16604631253358965,1.0,1.0,5.8133507584399835e-18
2900,0.1885039920073788,0.17070582962098657,1.0,1.0,6.0036219721721576e-18
3000,0.194314213502718,0.17530717108253602,1.0,1.0,6.193340146681367e-18
3100,0.2001045840827496,0.17985136608627417,1.0,1.0,6.3825158754498374e-18
3200,0.20587583997045644,0.1843394214593984,1.0,1.0,6.571159602095467e-18
3300,0.2116286920227627,0.188772322306598,1.0,1.0,6.759281627608195e-18
3400,0.21736382650980118,0.1931510326077681,1.0,1.0,6.946892117503777e-18
3500,0.22308190586560145,0.19747649579607515,1.0,1.0,7.134001108945591e-18
3600,0.22878356941147812,0.20174963531719317,1.0,1.0,7.320618517822303e-18
3700,0.23446943405333895,0.2059713551701382,1.0,1.0,7.506754145818407e-18
3800,0.24014009495406943,0.21014254043061714,1.0,1.0,7.692417687477825e-18
3900,0.24579612618209573,0.21426405775770602,1.0,1.0,7.877618737298389e-18
4000,0.25143808133717216,0.2183367558840563,1.0,1.0,8.062366796860071e-18
4100,0.25706649415438915,0.22236146609056176,1.0,1.0,8.246671282014382e-18
4200,0.2626818790873497,0.2263390026660249,1.0,1.0,8.430541530166661e-18
4300,0.2682847318714149,0.23027016335228534,1.0,1.0,8.613986807654914e-18
4400,0.27387553006787746,0.23415572977539134,1.0,1.0,8.797016317259554e-18
4500,0.2794547335898798,0.2379964678633856,1.0,1.0,8.979639205893472e-18
4600,0.2850227852108545,0.24179312825109478,1.0,1.0,9.161864572453747e-18
4700,0.2905801110562274,0.2455464466724894,1.0,1.0,9.34370147592532e-18
4800,0.29612712107908945,0.2492571443408336,1.0,1.0,9.525158943719873e-18
4900,0.30166420952050915,0.25292592831751526,1.0,1.0,9.706245980326489e-18
5000,0.3071917553551252,0.2565534918694296,1.0,1.0,9.88697157631003e-18
5100,0.312710122722631,0.2601405148156883,1.0,1.0,1.0067344717679806e-17
5200,0.318219661345731,0.26368766386390635,1.0,1.0,1.0247374395731203e-17
5300,0.32372070693512445,0.26719559293646783,1.0,1.0,1.0427069617374036e-17
5400,0.329213581582045,0.2706649434870066,1.0,1.0,1.0606439416043912e-17
5500,0.3346985941388593,0.27409634480756495,1.0,1.0,1.0785492863271132e-17
5600,0.3401760405882066,0.2774904143267566,1.0,1.0,1.0964239080981407e-17
5700,0.345646204401137,0.2808477578991731,1.0,1.0,1.1142687254646641e-17
5800,0.35110935688468553,0.2841689700863242,1.0,1.0,1.1320846647390645e-17
5900,0.3565657575193004,0.2874546344294774,1.0,1.0,1.1498726615174196e-17
6000,0.3620156542865229,0.29070532371462465,1.0,1.0,1.1676336623235428e-17
6100,0.3674592839872985,0.2939216002298341,1.0,1.0,1.1853686263944218e-17
6200,0.3728968725512832,0.2971040160152355,1.0,1.0,1.2030785276270703e-17
6300,0.3783286353374903,0.3002531131059329,1.0,1.0,1.2207643567125995e-17
6400,0.3837547774266086,0.3033694237680338,1.0,1.0,1.238427123485352e-17
6500,0.38917549390530715,0.306453470728016,1.0,1.0,1.2560678595198574e-17
6600,0.39459097014282907,0.3095057673957064,1.0,1.0,1.2736876210169114e-17
6700,0.40000138206016095,0.3125268180810133,1.0,1.0,1.2912726244240384e-17
6800,0.4054068963920537,0.31551711820462414,1.0,1.0,1.3088046762791207e-17
6900,0.4108076709421571,0.31847715450296377,1.0,1.0,1.3262796043952193e-17
7000,0.41620385483153555,0.32140740522741995,1.0,1.0,1.3436987121725537e-17
7100,0.4215955887407948,0.3243083403381625,1.0,1.0,1.3610632379129765e-17
7200,0.4269830051460399,0.3271804216926987,1.0,1.0,1.3783743605560134e-17
7300,0.43236622854888507,0.3300241032292762,1.0,1.0,1.3956332047320885e-17
7400,0.4377453757007229,0.33283983114535803,1.0,1.0,1.4128408452326522e-17
7500,0.44312055582145365,0.33562804407128954,1.0,1.0,1.4299983109802277e-17
7600,0.4484918708128657,0.33838917323931106,1.0,1.0,1.4471065885663173e-17
7700,0.4538594154668498,0.34112364264809547,1.0,1.0,1.4641666254171778e-17
7800,0.45922327766862203,0.3438318692228752,1.0,1.0,1.4811793326346887e-17
7900,0.4645835385951218,0.34651426297137516,1.0,1.0,1.4981455875537082e-17
8000,0.4699402729087459,0.349171227135636,1.0,1.0,1.5150662360520525e-17
8100,0.47529354894657044,0.35180315833984355,1.0,1.0,1.531942094642141e-17
8200,0.4806434289052075,0.35441044673431765,1.0,1.0,1.5487739523706173e-17
8300,0.48598996902143593,0.3569934761357551,1.0,1.0,1.5655625725484153e-17
8400,0.49133321974874083,0.35955262416384104,1.0,1.0,1.582308694329598e-17
8500,0.49667322592988933,0.362088262374345,1.0,1.0,1.5990130341567725e-17
8600,0.5020100269656652,0.3646007563887956,1.0,1.0,1.615676287086628e-17
8700,0.5073436569798807,0.3670904660208418,1.0,1.0,1.632299128009355e-17
8800,0.5126741449807766,0.36955774539939895,1.0,1.0,1.648882212772171e-17
8900,0.5180015150189194,0.3720029430886722,1.0,1.0,1.665426179217853e-17
9000,0.5233257863416985,0.3744264022051419,1.0,1.0,1.6819316481458173e-17
9100,0.5286469735445212,0.37682846053160074,1.0,1.0,1.6983992242045146e-17
9200,0.533965086718802,0.37920945062834077,1.0,1.0,1.7148294967223866e-17
9300,0.5392801315968359,0.38156969994155937,1.0,1.0,1.7312230404820386e-17
9400,0.5445921096936419,0.383909530909067,1.0,1.0,1.747580416445626e-17
9500,0.5499010184458626,0.3862292610633668,1.0,1.0,1.763902172435451e-17
9600,0.5552068513477972,0.38852920313219425,1.0,1.0,1.7801888437736948e-17
9700,0.5605095980846472,0.39080966513658155,1.0,1.0,1.7964409538891792e-17
9800,0.565809244663046,0.3930709504865097,1.0,1.0,1.8126590148916477e-17
9900,0.5711057735389461,0.3953133580742262,1.0,1.0,1.8288435281222157e-17
10000,0.5763991637429293,0.39753718236528574,1.0,1.0,1.844994984680732e-17
10100,0.581689391003007,0.3997427134873811,1.0,1.0,1.861113865937846e-17
10200,0.5869764278649723,0.4019302373170261,1.0,1.0,1.8772006440356494e-17
10300,0.5922602438103653,0.4041000355641438,1.0,1.0,1.8932557823846016e-17
10400,0.5975408053721097,0.4062523858546237,1.0,1.0,1.9092797361627216e-17
10500,0.6028180762478749,0.4083875618108949,1.0,1.0,1.925272952827541e-17
10600,0.6080920174112204,0.41050583313058103,1.0,1.0,1.9412358726529198e-17
10700,0.6133625872205726,0.41260746566327255,1.0,1.0,1.957168929307061e-17
10800,0.6186297415260844,0.4146927214854934,1.0,1.0,1.973072550493934e-17
10900,0.6238934337744264,0.4167618589738655,1.0,1.0,1.9889471586904593e-17
11000,0.6291536151115565,0.41881513287657507,1.0,1.0,2.004793172026662e-17
11100,0.634410234483513,0.4208527943831367,1.0,1.0,2.0206110053773046e-17
11200,0.6396632387352746,0.4228750911925306,1.0,1.0,2.0364010717749164e-17
11300,0.6449125727077316,0.42488226757974223,1.0,1.0,2.0521637843160807e-17
11400,0.6501581793328063,0.42687456446075184,1.0,1.0,2.067899558847582e-17
11500,0.6553999997267673,0.42885221945600666,1.0,1.0,2.083608817925703e-17
11600,0.6606379732817739,0.43081546695242756,1.0,1.0,2.099291996943207e-17
11700,0.6658720377556908,0.43276453816397453,1.0,1.0,2.1149495541379423e-17
11800,0.6711021293602137,0.4346996611908202,1.0,1.0,2.1305804105468864e-17
11900,0.6763281828468736,0.4366210610771546,1.0,1.0,2.1461821703727928e-17
12000,0.6815501315910021,0.43852895986766977,1.0,1.0,2.1617559026960654e-17
12100,0.6867679076751705,0.4404235766627437,1.0,1.0,2.17730259796637e-17
12200,0.6919814419710453,0.4423051276723694,1.0,1.0,2.1928231764602458e-17
12300,0.6971906642196959,0.4441738262688532,1.0,1.0,2.2083184954387316e-17
12400,0.7023955031103865,0.4460298830383151,1.0,1.0,2.2237893552427736e-17
12500,0.7075958863578847,0.4478735058310166,1.0,1.0,2.2392356508372386e-17
12600,0.7127917407780189,0.44970489981055844,1.0,1.0,2.254655013917088e-17
12700,0.7179829923610123,0.45152426750195845,1.0,1.0,2.2700479117744445e-17
12800,0.7231695663444613,0.4533318088386555,1.0,1.0,2.2854147853021273e-17
12900,0.7283513872849552,0.4551277212084464,1.0,1.0,2.300756056640305e-17
13000,0.7335283791283684,0.45691219949840234,1.0,1.0,2.3160721337456183e-17
13100,0.738700465278855,0.4586854361387731,1.0,1.0,2.3313634132774668e-17
13200,0.7438675686665753,0.4604476211459131,1.0,1.0,2.3466302825095797e-17
13300,0.7490296118141816,0.46219894216425345,1.0,1.0,2.3618731206489415e-17
13400,0.7541865169020943,0.4639395845073352,1.0,1.0,2.3770922997797466e-17
13500,0.7593382058325927,0.46566973119793464,1.0,1.0,2.3922881855622727e-17
13600,0.7644846002927528,0.46738956300729784,1.0,1.0,2.40746113776528e-17
13700,0.7696256218162568,0.46909925849350753,1.0,1.0,2.4226115106842552e-17
13800,0.7747611918441052,0.4707989940390081,1.0,1.0,2.4377396534768564e-17
13900,0.7798912317842583,0.4724889438872916,1.0,1.0,2.4528459104394487e-17
14000,0.7850156630702375,0.47416928017879134,1.0,1.0,2.4679306212393404e-17
14100,0.7901247371293797,0.4758401729859746,1.0,1.0,2.4829912278905567e-17
14200,0.7952145238584748,0.47750179034767415,1.0,1.0,2.4980269318436003e-17
14300,0.8002851854820853,0.4791542983026648,1.0,1.0,2.513038154708256e-17
14400,0.805336878000513,0.48079786092250787,1.0,1.0,2.5280253112540067e-17
14500,0.8103697514536522,0.4824326403436768,1.0,1.0,2.5429888096379294e-17
14600,0.8153839501726403,0.4840587967989862,1.0,1.0,2.5579290516182067e-17
14700,0.8203796130200126,0.48567648864833324,1.0,1.0,2.5728464327528964e-17
14800,0.8253568736190133,0.4872858724087769,1.0,1.0,2.5877413425866537e-17
14900,0.8303158605726726,0.48888710278396047,1.0,1.0,2.6026141648261737e-17
15000,0.8352566976732118,0.49048033269289815,1.0,1.0,2.6174652775071378e-17
15100,0.8401795041023058,0.4920657132981398,1.0,1.0,2.632295053150985e-17
15200,0.8450843946226899,0.49364339403332813,1.0,1.0,2.6471038589153375e-17
15300,0.8499714797615691,0.4952135226301613,1.0,1.0,2.661892056736102e-17
15400,0.8548408659862582,0.4967762451447733,1.0,1.0,2.676660003463769e-17
15500,0.8596926558724511,0.49833170598355075,1.0,1.0,2.691407147591989e-17
15600,0.864526948265492,0.49988004792839036,1.0,1.0,2.7061300688887853e-17
15700,0.8693438384350003,0.5014214121614216,1.0,1.0,2.7208291666599224e-17
15800,0.8741434182231773,0.50295593828919,1.0,1.0,2.7355048332291177e-17
15900,0.8789257761871018,0.5044837643663344,1.0,1.0,2.7501574541393704e-17
16000,0.8836909977353019,0.5060050269187494,1.0,1.0,2.7647874083433664e-17
16100,0.8884391652588773,0.5075198609662582,1.0,1.0,2.7793950683851324e-17
16200,0.8931703582574259,0.5090284000448008,1.0,1.0,2.7939808005727363e-17
16300,0.8978846534600152,0.5105307762281496,1.0,1.0,2.808544965142603e-17
16400,0.9025821249414279,0.5120271201491637,1.0,1.0,2.823087916416707e-17
16500,0.9072628442338909,0.5135175610205928,1.0,1.0,2.8376100029520437e-17
16600,0.9119268804344949,0.5150022266554369,1.0,1.0,2.8521115676837365e-17
16700,0.9165743003084897,0.5164812434868775,1.0,1.0,2.8665929480616814e-17
16800,0.9212051683886396,0.5179547365877875,1.0,1.0,2.8810544761814716e-17
16900,0.9258195470708059,0.5194228296898238,1.0,1.0,2.895496478909573e-17
17000,0.9304174967059196,0.5208856452021227,1.0,1.0,2.9099192780033503e-17
17100,0.9349990756884954,0.522343304229598,1.0,1.0,2.9243231902261855e-17
17200,0.9395643405418326,0.5237959265908532,1.0,1.0,2.938708527458068e-17
17300,0.9441133460000387,0.5252436308357185,1.0,1.0,2.953075596801366e-17
17400,0.9486461450870064,0.5266865342624178,1.0,1.0,2.9674247006833365e-17
17500,0.953162789192467,0.5281247529343773,1.0,1.0,2.9817561369535056e-17
17600,0.9576633281452376,0.5295584016966778,1.0,1.0,2.9960701989786325e-17
17700,0.9621478102837732,0.530987594192167,1.0,1.0,3.01036717573317e-17
17800,0.9666162825241295,0.5324124428772317,1.0,1.0,3.024647351887133e-17
17900,0.9710687904254374,0.533833059037242,1.0,1.0,3.0389110078904326e-17
18000,0.9755053782529853,0.5352495528016724,1.0,1.0,3.053158420054148e-17
18100,0.9799260890389999,0.5366620331589086,1.0,1.0,3.0673898606296686e-17
18200,0.9843309646412128,0.5380706079707444,1.0,1.0,3.081605597884257e-17
18300,0.9887200457992972,0.5394753839865793,1.0,1.0,3.0958058961746463e-17
18400,0.9930933721892513,0.5408764668573207,1.0,1.0,3.109991016018158e-17
18500,0.9974509824758075,0.5422739611489973,1.0,1.0,3.124161214161426e-17
18600,1.0017929143629365,0.5436679703560905,1.0,1.0,3.138316743646844e-17
18700,1.006119204642517,0.5450585969145914,1.0,1.0,3.1524578538772305e-17
18800,1.0104298892412376,0.546445942214788,1.0,1.0,3.1665847906782185e-17
18900,1.0147250032657924,0.547830106613788,1.0,1.0,3.180697796358977e-17
19000,1.019004581046432,0.5492111894477834,1.0,1.0,3.194797109771012e-17
19100,1.0232686561789281,0.5505892890440653,1.0,1.0,3.208882966365373e-17
19200,1.0275172615650052,0.55196450273279,1.0,1.0,3.2229555982481935e-17
19300,1.0317504294512951,0.5533369268585042,1.0,1.0,3.2370152342344163e-17
19400,1.0359681914668644,0.5547066567914376,1.0,1.0,3.251062099900518e-17
19500,1.0401705786593625,0.55607378693856,1.0,1.0,3.265096417635326e-17
19600,1.0443576215298391,0.557438410754417,1.0,1.0,3.279118406689921e-17
19700,1.0485293500662751,0.5588006207517443,1.0,1.0,3.293128283225843e-17
19800,1.0526857937758707,0.5601605085118656,1.0,1.0,3.307126260362392e-17
19900,1.056826981716132,0.5615181646948809,1.0,1.0,3.3211125482223715e-17
20000,1.0609529425247963,0.5628736790496495,1.0,1.0,3.335087353977236e-17
20100,1.0650637044486353,0.5642271404235684,1.0,1.0,3.349050881890669e-17
20200,1.069159295371172,0.5655786367721582,1.0,1.0,3.3630033333611404e-17
20300,1.0732397428393474,0.5669282551684542,1.0,1.0,3.3769449069637705e-17
20400,1.077305074089173,0.5682760818122089,1.0,1.0,3.3908757984909964e-17
20500,1.081355316070398,0.5696222020389113,1.0,1.0,3.4047962009925256e-17
20600,1.0853904954702294,0.5709667003286275,1.0,1.0,3.418706304814158e-17
20700,1.0894106387361293,0.5723096603146632,1.0,1.0,3.4326062976358355e-17
20800,1.0934157720977238,0.5736511647920568,1.0,1.0,3.4464963645091875e-17
20900,1.097405921587849,0.5749912957259025,1.0,1.0,3.460376687893626e-17
21000,1.1013811130627644,0.5763301342595117,1.0,1.0,3.4742474476926317e-17
21100,1.1053413722215575,0.5776677607224115,1.0,1.0,3.488108821288285e-17
21200,1.1092867246247682,0.5790042546381876,1.0,1.0,3.501960983575942e-17
21300,1.1132171957122559,0.5803396947321751,1.0,1.0,3.515804106997795e-17
21400,1.1171328108203336,0.5816741589389979,1.0,1.0,3.529638361576172e-17
21500,1.1210335951981931,0.583007724409963,1.0,1.0,3.5434639149455386e-17
21600,1.124919574023644,0.5843404675203113,1.0,1.0,3.557280932384659e-17
21700,1.1287907724181856,0.5856724638763294,1.0,1.0,3.571089576847742e-17
21800,1.1326472154614362,0.5870037883223244,1.0,1.0,3.584890008995409e-17
21900,1.136488928204938,0.5883345149474652,1.0,1.0,3.5986823872244264e-17
22000,1.140315935685358,0.5896647170924959,1.0,1.0,3.6124668676977734e-17
22100,1.1441282629371041,0.590994467356319,1.0,1.0,3.6262436043738587e-17
22200,1.1479259350043733,0.5923238376024567,1.0,1.0,3.6400127490349315e-17
22300,1.1517089769526534,0.5936528989653899,1.0,1.0,3.653774451315698e-17
22400,1.1554774138796913,0.5949817218567793,1.0,1.0,3.66752885873088e-17
22500,1.159231270925948,0.5963103759715709,1.0,1.0,3.681276116702929e-17
22600,1.1629705732845546,0.5976389302939877,1.0,1.0,3.6950163685885604e-17
22700,1.1666953462107859,0.598967453103413,1.0,1.0,3.708749755705797e-17
22800,1.170405615031067,0.6002960119801641,1.0,1.0,3.7224764173599666e-17
22900,1.1741014051515284,0.6016246738111629,1.0,1.0,3.7361964908694455e-17
23000,1.1777827420661207,0.6029535047955022,1.0,1.0,3.7499101115916043e-17
23100,1.1814496513643076,0.604282570449914,1.0,1.0,3.763617412947188e-17
23200,1.1851021587383486,0.6056119356141376,1.0,1.0,3.7773185264458964e-17
23300,1.188740289990182,0.6069416644561949,1.0,1.0,3.7910135817104316e-17
23400,1.1923640710379264,0.6082718204775711,1.0,1.0,3.804702706500754e-17
23500,1.1959735279220085,0.6096024665183062,1.0,1.0,3.8183860267380164e-17
23600,1.1995686868109305,0.6109336647619956,1.0,1.0,3.832063666527951e-17
23700,1.203149574006691,0.6122654767407081,1.0,1.0,3.845735748184641e-17
23800,1.206716215949867,0.6135979633398154,1.0,1.0,3.85940239225285e-17
23900,1.2102686392243711,0.6149311848027439,1.0,1.0,3.873063717531532e-17
24000,1.2138068705618932,0.6162652007356424,1.0,1.0,3.8867198410956885e-17
24100,1.2173309368460377,0.6176000701119753,1.0,1.0,3.9003708783192047e-17
24200,1.2208408651161653,0.618935851277037,1.0,1.0,3.9140169428963e-17
24300,1.224336682570951,0.6202726019523941,1.0,1.0,3.9276581468638507e-17
24400,1.227818416571666,0.6216103792402542,1.0,1.0,3.9412946006227924e-17
24500,1.231286094645194,0.6229492396277648,1.0,1.0,3.954926412959267e-17
24600,1.234739744486791,0.6242892389912434,1.0,1.0,3.968553691066044e-17
24700,1.2381793939625954,0.6256304326003408,1.0,1.0,3.9821765405634054e-17
24800,1.2416050711119004,0.6269728751221394,1.0,1.0,3.995795065519982e-17
24900,1.2450168041491945,0.6283166206251874,1.0,1.0,4.0094093684731674e-17
25000,1.248414621465977,0.6296617225834732,1.0,1.0,4.0230195504497396e-17
25100,1.2517985516323613,0.6310082338803364,1.0,1.0,4.0366257109861504e-17
25200,1.255168623398467,0.632356206812324,1.0,1.0,4.050227948148452e-17
25300,1.2585248656956138,0.6337056930929863,1.0,1.0,4.063826358552083e-17
25400,1.2618673076373221,0.63505674385662,1.0,1.0,4.07742103738218e-17
25500,1.265195978520126,0.6364094096619554,1.0,1.0,4.091012078412891e-17
25600,1.2685109078242087,0.6377637404957918,1.0,1.0,4.104599574026867e-17
25700,1.271812125213863,0.6391197857765825,1.0,1.0,4.118183615234796e-17
25800,1.275099660537788,0.6404775943579692,1.0,1.0,4.131764291694727e-17
25900,1.278373543829224,0.6418372145322684,1.0,1.0,4.145341691731017e-17
26000,1.281633805305934,0.643198694033911,1.0,1.0,4.158915902354003e-17
26100,1.2848804753700362,0.644562080042836,1.0,1.0,4.1724870092784693e-17
26200,1.2881135846076963,0.6459274191878402,1.0,1.0,4.186055096942947e-17
