Timestep (s),Sum Voltage (V),Carry Out Voltage (V),Sum Error Rate (Dimless),Carry Out Error Rate (Dimless),Energy Dissipation (J)
0,2.499241452670864,0.006923328222490057,0.00021189617522687776,0.0002934217809507089,1.6300963590755864e-19
100,2.498465677711892,0.013745147817296013,0.00022084328040716805,0.0004171634363989707,3.2409891016095255e-19
200,2.4976724921164597,0.020467536382502538,0.00023035485638556175,0.0005850313535045171,4.833362351173813e-19
300,2.4968617234018287,0.027092516786322827,0.00024047130045667942,0.0008097050544960682,6.407872541297631e-19
400,2.496033209272778,0.03362205896410971,0.00025123611000155144,0.0011065142982146225,7.965149532484702e-19
500,2.495186797292174,0.04005808166357579,0.00026269613682183834,0.0014937213288096496,9.50579772990566e-19
600,2.4943223445588316,0.04640245409636218,0.00027490186250755944,0.001992769063279165,1.1030397159094485e-18
700,2.4934397173929317,0.05265699754213882,0.00028790769656705795,0.00262847921579612,1.2539504499960516e-18
800,2.4925387910291876,0.058823486886671314,0.0003017722991947025,0.0034291843760949625,1.4033654080383228e-18
900,2.49161944931789,0.06490365209680826,0.0003165589306927119,0.004426778971935219,1.5513358830314973e-18
1000,2.4906815844339065,0.0708991796442558,0.00033233582971869957,0.005656675873198624,1.6979111197384374e-18
1100,2.48972509659367,0.07681171387081018,0.00034917662270339545,0.007157658091194841,1.8431384025156265e-18
1200,2.488749893780143,0.08264285830776665,0.0003671607669475385,0.008971618496880884,1.9870631395074634e-18
1300,2.4877558914757243,0.08839417693333304,0.0003863740301133234,0.011143184550156504,2.129728943337511e-18
1400,2.4867430124030205,0.09406719540133297,0.0004069090090060845,0.0137192295257339,2.2711777083818537e-18
1500,2.4857111862733987,0.09966340220830094,0.00042886569076749925,0.0167482763488489,2.4114496847725762e-18
1600,2.4846603495432062,0.10518424982376005,0.00045235205982274707,0.02027980473689317,2.5505835492225228e-18
1700,2.48359044517753,0.11063115578166298,0.0004774847541545446,0.024363476577374255,2.6886164727940275e-18
1800,2.482501422421352,0.11600550372701215,0.0005043897747339932,0.029048298155899932,2.8255841857224076e-18
1900,2.481393236577959,0.12130864442972969,0.0005332032521966346,0.03438174080761114,2.9615210394063815e-18
2000,2.480265848794434,0.12654189675486496,0.0005640722751227845,0.04040884361165942,3.0964600656807446e-18
2100,2.479119225854073,0.13170654860572015,0.000597155784577752,0.04717132286056136,3.230433033465421e-18
2200,2.4779533399755533,0.1368038578272027,0.0006326255398537706,0.054706713088806036,3.3634705029119583e-18
2300,2.476768168618674,0.14183505308538732,0.0006706671606792058,0.06304756356912133,3.495601877133809e-18
2400,2.4755636942965,0.1468013347056575,0.0007114812514670277,0.07222071231740224,3.626855451640984e-18
2500,2.474339904393723,0.15170387548868564,0.0007552846135211455,0.08224665707537027,3.757258461557507e-18
2600,2.4730967909910664,0.15654382149571336,0.0008023115514419477,0.09313903942885726,3.886837126724749e-18
2700,2.4718343506955534,0.16132229280909052,0.0008528152803345401,0.10490425448907681,4.015616694781268e-18
2800,2.470552584476463,0.1660403842623498,0.0009070694407564694,0.117541194490693,4.1436214823101e-18
2900,2.4692514975067983,0.1706991661512087,0.000965369728710086,0.13104113053817135,4.2708749141303866e-18
3000,2.467931099010092,0.1752996849127369,0.0010280356483295394,0.14538773257122306,4.397399560828384e-18
3100,2.466591402112385,0.17984296379071993,0.0010954123952557904,0.16055722381978044,4.5232171745926085e-18
3200,2.4652324236991996,0.18433000347007464,0.0011678728790472936,0.17651866238940306,4.6483487234428326e-18
3300,2.4638541842773587,0.18876178269577532,0.0012458198932894238,0.19323433964053205,4.7728144239177364e-18
3400,2.4624567078414765,0.1931392588728414,0.0013296884423817934,0.21066028243483315,4.8966337722869675e-18
3500,2.4610400217449704,0.1974633686367258,0.0014199482342717173,0.22874684432614423,5.019825574377231e-18
3600,2.459604156575441,0.20173502841794105,0.001517106348654429,0.24743936955151502,5.142407974044267e-18
3700,2.4581491460342706,0.20595513497840232,0.0016217100903853643,0.26667891273017286,5.264398480381094e-18
3800,2.456675026820291,0.21012456593565684,0.001734350038019361,0.28640299712206574,5.3858139937061006e-18
3900,2.4551818385173863,0.21424418026842693,0.0018556632975097465,0.30654639451051635,5.506670830390177e-18
4000,2.4536696234858884,0.21831481880481352,0.001986336971156133,0.32704191055646326,5.6269847465826564e-18
4100,2.452138426757633,0.22233730469964452,0.0021271118518599863,0.3478211606294146,5.746770960877383e-18
4200,2.450588295934548,0.2263124438890729,0.002278786352632234,0.3688153224572729,5.866044175982574e-18
4300,2.4490192810906506,0.23024102553981016,0.002442220681081242,0.38995585373661656,5.9848185994218056e-18
4400,2.4474314346773247,0.23412382247749766,0.0026183412682694307,0.4111751644752214,6.103107963332928e-18
4500,2.445824811431773,0.23796159160231214,0.002808145460853728,0.43240723583140317,6.220925543392858e-18
4600,2.444199468288518,0.24175507429640872,0.003012706484808003,0.45358817908425475,6.338284176910477e-18
4700,2.442555464293853,0.24550499681521046,0.0032331786882230373,0.47465673013720244,6.455196280131727e-18
4800,2.440892860523129,0.2492120706655959,0.0034708030697072623,0.4955546767631567,6.571673864792656e-18
4900,2.4392117200007775,0.25287699297674143,0.0037269130977124476,0.5162272174334959,6.687728553951082e-18
5000,2.4375121076229744,0.2565004468577336,0.004002940824693768,0.5366232519671756,6.803371597135655e-18
5100,2.435794090082844,0.2600831017377094,0.0043004232983323565,0.5566956055288038,6.918613884846623e-18
5200,2.434057735798112,0.26362561371075627,0.0046210092701068906,0.5764011887498723,7.033465962422361e-18
5300,2.432303114841123,0.267128625858296,0.004966466199253894,0.5957010973733077,7.147938043324221e-18
5400,2.4305302988711306,0.27059276856447906,0.005338687547586929,0.6145606557801766,7.262040021852112e-18
5500,2.4287393610687817,0.2740186598236951,0.005739700357744848,0.6329494092002366,7.375781485321058e-18
5600,2.4269303760727152,0.2774069055401745,0.00617167310416189,0.6508410697795337,7.489171725719474e-18
5700,2.4251034199181944,0.2807580998189412,0.006636923802402328,0.6682134218870273,7.602219750880349e-18
5800,2.4232585699777056,0.28407282523993815,0.007137928358439183,0.6850481920804539,7.714934295189668e-18
5900,2.4213959049034464,0.28735165313836963,0.007677329134984645,0.701330889267904,7.827323829835412e-18
6000,2.4195155045716366,0.2905951438690243,0.008257943707057902,0.717050620217752,7.939396572638772e-18
6100,2.4176174500285867,0.29380384705832463,0.008882773773633446,0.7321998854812277,8.051160497482622e-18
6200,2.415701823438459,0.2969783018611766,0.00955501418639193,0.7467743605540291,8.162623343339894e-18
6300,2.413768708032662,0.30011903720015476,0.010278062050347314,0.7607726665663468,8.273792622943346e-18
6400,2.411818188060815,0.30322657200274944,0.01105552584441749,0.7741961345965108,8.384675631094731e-18
6500,2.409850348743233,0.3063014154334074,0.011891234502865444,0.7870485672069953,8.495279452636367e-18
6600,2.4078652762248693,0.309344067113258,0.012789246390979114,0.7993360003783081,8.605610970105556e-18
6700,2.4058630575306696,0.3123550173383961,0.01375385810043006,0.8110664686821968,8.715676871075297e-18
6800,2.4038437805222848,0.3153347472952011,0.014789612981443101,0.8222497760753685,8.82548365520011e-18
6900,2.401807533856091,0.31828372925936943,0.015901309320337065,0.8328972742680658,8.935037640987876e-18
7000,2.3997544069424777,0.3212024267996137,0.017094008062149335,0.8430216503875527,9.044344972294972e-18
7100,2.3976844899063474,0.32409129496979794,0.018373039969083904,0.8526367251704909,9.153411624570277e-18
7200,2.395597873548797,0.3269507805027819,0.01974401209642429,0.8617572627148973,9.262243410845835e-18
7300,2.3934946493099254,0.329781321987998,0.02121281345852355,0.8703987924299483,9.370845987503952e-18
7400,2.391374909232741,0.3325833500574571,0.022785619748548425,0.8785774437087144,9.47922485980841e-18
7500,2.3892387459281186,0.33535728755391325,0.024468896967029363,0.8863097934590745,9.587385387230536e-18
7600,2.3870862525407768,0.33810354970545053,0.026269403806019165,0.8936127265917828,9.695332788562031e-18
7700,2.384917522716236,0.3408225442872458,0.028194192628026915,0.9005033092649071,9.803072146837485e-18
7800,2.382732650568724,0.3435146717852262,0.0302506088719795,0.9069986746428901,9.910608414061339e-18
7900,2.38053173065,0.34618032555211986,0.03244628871252375,0.9131159207443054,1.0017946415764426e-17
8000,2.3783148579190563,0.3488198919571303,0.03478915479417033,0.9188720198917333,1.0125090855381292e-17
8100,2.376082127712677,0.3514337505428135,0.037287409858347886,0.924283739228839,1.0232046318458255e-17
8200,2.3738336357168213,0.35402227416109416,0.03994952807958807,0.9293675716253555,1.0338817276718268e-17
8300,2.3715694779387992,0.3565858291200229,0.04278424392705549,0.9341396763859395,1.0445408091958202e-17
8400,2.369289750680219,0.35912477531820336,0.04580053836967224,0.9386158290366875,1.0551823019811603e-17
8500,2.3669945505106784,0.3616394663823464,0.04900762224744648,0.9428113795346651,1.0658066213366021e-17
8600,2.3646839742421726,0.36413024979622227,0.052414916638510944,0.9467412181931887,1.0764141726651915e-17
8700,2.3623581189041976,0.36659746702592,0.056032030061041516,0.9504197486583006,1.0870053518002759e-17
8800,2.360017081719528,0.3690414536495287,0.05986873236186674,0.953860867289746,1.0975805453287119e-17
8900,2.3576609600806417,0.3714625394743565,0.06393492515944643,0.9570779482855373,1.108140130903224e-17
9000,2.3552898515267766,0.37386104865562636,0.06824060872806081,0.9600838339651082,1.118684477543014e-17
9100,2.352903853721597,0.37623729981344894,0.07279584523279292,0.9628908296287234,1.1292139459233531e-17
9200,2.3505030644314493,0.37859160614541354,0.07761071825119004,0.9655107024470667,1.1397288886552022e-17
9300,2.34808758150419,0.38092427553245783,0.08269528854749886,0.9679546838717727,1.1502296505551103e-17
9400,2.345657502848571,0.3832356106499645,0.08805954609905675,0.9702334751081577,1.1607165689048955e-17
9500,2.3432054655283734,0.3855259090742518,0.09373101482149637,0.9723572552020457,1.1711889546433883e-17
9600,2.3407310179988126,0.38779546337850074,0.09972320411874391,0.9743356913364739,1.1816470242037415e-17
9700,2.338234325837932,0.39004456123456405,0.10604816121049943,0.9761779509889785,1.1920910699909708e-17
9800,2.3357155538880483,0.3922734855135143,0.11271772666849544,0.9778927156093408,1.2025213776310763e-17
9900,2.333174866271491,0.3944825143771371,0.11974345215544469,0.9794881955128744,1.2129382261879447e-17
10000,2.3306124264053043,0.396671921371714,0.12713651250115188,0.980972145730426,1.2233418883723982e-17
10100,2.3280283970149647,0.39884197551800427,0.13490761239525761,0.9823518825704539,1.2337326307439515e-17
10200,2.3254229401471913,0.40099294139803227,0.14306688807289125,0.9836343006818145,1.244110713905803e-17
10300,2.3227962171819,0.4031250792453361,0.15162380447227508,0.9848258904342907,1.254476392692523e-17
10400,2.3201483888433585,0.4052386450257834,0.16058704845089078,0.9859327554456278,1.264829916351909e-17
10500,2.3174796152105963,0.4073338905217521,0.1699644187579542,0.9869606301212974,1.2751715287201308e-17
10600,2.3147900557271113,0.4094110634117989,0.17976271357412632,0.9879148970803748,1.2855014683911165e-17
10700,2.31207986920992,0.41147040734944407,0.1899876165428508,0.9888006043658272,1.2958199688800426e-17
10800,2.309349213857992,0.4135121620394007,0.20064358232945256,0.9896224823509275,1.3061272587813875e-17
10900,2.3065982472601068,0.41553656331234085,0.21173372285159697,0.9903849602696644,1.316423561921528e-17
11000,2.3038271264021657,0.41754384320036625,0.22325969542966428,0.991092182312397,1.3267090975061223e-17
11100,2.3010360076739937,0.41953423000700124,0.23522159418666433,0.9917480232368051,1.3369840802625654e-17
11200,2.298225046875661,0.42150794837692374,0.24761784613214455,0.9923561034591917,1.3472487205778743e-17
11300,2.2953943992233534,0.423465219365619,0.2604451134024468,0.9929198035981089,1.3575032246316509e-17
11400,2.2925442193548156,0.42540626050586605,0.2736982032034978,0.9934422784495839,1.3677477945247679e-17
11500,2.289674661334394,0.4273312858722478,0.28736998702142547,0.9939264703818249,1.3779826284037921e-17
11600,2.2867858786577013,0.42924050614868126,0.30145133067846464,0.9943751221440943,1.3882079205811574e-17
11700,2.2838780242559227,0.43113412868560447,0.31593103679561985,0.9947907890852038,1.398423861651663e-17
11800,2.2809512504997866,0.4330123575659366,0.33079580118160723,0.9951758507896542,1.4086306386046604e-17
11900,2.2780057092032155,0.43487539366287536,0.3460301845974716,0.9955325221343196,1.4188284349330546e-17
12000,2.2750415516266727,0.43672343469827535,0.36161660124704165,0.9958628637781133,1.4290174307384195e-17
12100,2.2720589284802273,0.43855667530112086,0.37753532521370703,0.9961687920972164,1.4391978028327832e-17
12200,2.269057989926345,0.4403753070637087,0.39376451590458184,0.9964520885803746,1.4493697248370263e-17
12300,2.266038885582423,0.44217951859557214,0.41028026337385504,0.9967144087009934,1.4595333672761826e-17
12400,2.2630017645230804,0.4439694955771083,0.4270566541793194,0.9969572902842836,1.4696888976718094e-17
12500,2.2599467752822164,0.4457454208135595,0.44406585818203725,0.997182161388342,1.4798364806309164e-17
12600,2.256874065854847,0.44750747428521287,0.4612782364311302,0.9973903477181363,1.4899762779326044e-17
12700,2.2537837836987324,0.4492558331980736,0.4786624699875194,0.9975830795929412,1.500108448611428e-17
12800,2.250676075735801,0.45099067203402166,0.49618570923613614,0.9977614984871525,1.5102331490384105e-17
12900,2.2475510883533847,0.4527121625997684,0.5138137429206231,0.9979266631645118,1.520350532999208e-17
13000,2.2444089674052674,0.45442047406883834,0.5315111858133149,0.9980795554252301,1.5304607517704485e-17
13100,2.2412498582125595,0.45611577303602885,0.5492416836123325,0.9982210854875034,1.5405639541925297e-17
13200,2.2380739055644043,0.45779822355766425,0.5669681333433592,0.9983520970201563,1.5506602867411575e-17
13300,2.23488125371852,0.4594679871952885,0.5846529172428341,0.9984733718469958,1.5607498935962104e-17
13400,2.2316720464015893,0.4611252230615018,0.6022581478185332,0.9985856343408793,1.5708329167084053e-17
13500,2.2284464268094966,0.4627700878639343,0.6197459215297905,0.998689555524817,1.5809094958638394e-17
13600,2.2252045376074214,0.46440273594234144,0.637078578309208,0.9987857568968953,1.590979768746791e-17
13700,2.2219465209297935,0.4660233193124389,0.6542189639668382,0.9988748139962709,1.6010438710004106e-17
13800,2.2186725183801093,0.4676319877087526,0.6711306923819709,0.9989572597253,1.611101936285255e-17
13900,2.2153826710306213,0.46922888861648093,0.687778404301377,0.9990335874423367,1.6211540963367593e-17
14000,2.212077119421899,0.4708141673162759,0.7041280195301172,0.9991042538407278,1.6312004810200343e-17
14100,2.2087560035622653,0.4723879669205061,0.7201469793242384,0.9991696816264029,1.6412412183836035e-17
14200,2.2054194629271144,0.47395042840760426,0.7358044758754152,0.999230262007363,1.6512764347114168e-17
14300,2.2020676364581098,0.47550169066279563,0.7510716659159299,0.9992863570075714,1.6613062545729913e-17
14400,2.1987006625622714,0.47704189050818785,0.7659218656670338,0.9993383016161099,1.671330800872384e-17
14500,2.195318679110947,0.4785711627428479,0.7803307246021522,0.9993864057832923,1.6813501948954638e-17
14600,2.1919218234386757,0.4800896401722362,0.7942763757944119,0.9994309562732565,1.6913645563559042e-17
14700,2.1885102323419434,0.4815974536450501,0.8077395609604942,0.9994722183833379,1.7013740034397142e-17
14800,2.185084042077831,0.483094732085582,0.8207037286931744,0.9995104375389181,1.7113756836507354e-17
14900,2.1816433883585664,0.4845816025233665,0.8331551047997734,0.9995458407723894,1.7213692953476514e-17
15000,2.178188406350232,0.4860581901265654,0.8450827340498897,0.9995786380944167,1.731355029431515e-17
15100,2.174719230672141,0.4875246182342416,0.8564784931299535,0.9996090237648657,1.7413330732041556e-17
15200,2.1712359953961227,0.48898100838335895,0.8673370750384302,0.9996371774703697,1.751303610483282e-17
15300,2.1677388340457115,0.49042748034054723,0.8776559455951335,0.9996632654153372,1.7612668217121964e-17
15400,2.1642278795952468,0.49186415213277396,0.8874352731651741,0.9996874413324122,1.7712228840652883e-17
15500,2.160703264468878,0.4932911400714213,0.8966778331003784,0.9997098474180592,1.7811719715494435e-17
15600,2.157165120539486,0.4947085587828541,0.9053888887698777,0.9997306151988723,1.7911142551010968e-17
15700,2.1536135791275104,0.4961165212389306,0.9135760513794825,0.9997498663334677,1.8010499026792496e-17
15800,2.150048770999695,0.49751513878040565,0.921249121059732,0.9997677133545435,1.8109790793553377e-17
15900,2.146470826367744,0.4989045211419669,0.9284199119299013,0.9997842603555879,1.8209019473995565e-17
16000,2.1428798748868925,0.5002847764831244,0.935102064015792,0.9997996036263126,1.8308186663632996e-17
16100,2.1392760456543947,0.5016560114088636,0.941310845010414,0.9998138322403777,1.8407293931592767e-17
16200,2.1356594672079248,0.5030183309990542,0.947062944917751,0.9998270285991346,1.850634282138e-17
16300,2.1320302675238954,0.5043718388281071,0.9523762666113614,0.9998392689344325,1.8605334851619178e-17
16400,2.1283885740156925,0.5057166369953211,0.9572697152736656,0.9998506237737168,1.8704271516763973e-17
16500,2.124734513531826,0.507052826141489,0.9617629895619486,0.999861158369992,1.8803154287786926e-17
16600,2.1210682123539972,0.5083805054776446,0.9658763771780635,0.9998709330994895,1.8901984612838438e-17
16700,2.1173897961950834,0.5096997728064827,0.9696305573064042,0.999880003829278,1.90007639178867e-17
16800,2.1136993901970382,0.5110107245423878,0.9730464121356054,0.9998884222571198,1.909949360733631e-17
16900,2.10999711892871,0.5123134557349915,0.9761448494009287,0.9998962362256818,1.9198175064620673e-17
17000,2.1062831063835734,0.5136080600937429,0.9789466375841944,0.9999034900129987,1.9296809652777796e-17
17100,2.1025574759773815,0.5148946300040431,0.9814722550942816,0.9999102246009245,1.939539871500674e-17
17200,2.098820350545729,0.5161732565516558,0.9837417544315094,0.9999164779233222,1.949394357520473e-17
17300,2.0950718523415324,0.5174440295403464,0.9857746420212069,0.9999222850954366,1.959244553848815e-17
17400,2.091312103032427,0.518707037513217,0.9875897740924974,0.9999276786259238,1.969090589169428e-17
17500,2.087541223698073,0.5199623677747618,0.9892052686841588,0.9999326886128289,1.9789325903866664e-17
17600,2.0837593348273797,0.5212101064057749,0.9906384335860441,0.9999373429246972,1.9887706826730813e-17
17700,2.0799665563156413,0.5224503382856228,0.9919057097764877,0.9999416673680016,1.9986049895147547e-17
17800,2.0761630074615818,0.5236831471104044,0.9930226296971567,0.9999456858418785,2.0084356327556412e-17
17900,2.0723488069643157,0.5249086154108668,0.9940037895195146,0.9999494204811473,2.0182627326406077e-17
18000,2.068524072920215,0.5261268245700276,0.9948628344030765,0.9999528917885059,2.028086407857002e-17
18100,2.064688922819688,0.5273378548400803,0.9956124556255452,0.9999561187567205,2.0379067755752184e-17
18200,2.0608434735438665,0.528541668998698,0.9962643983784146,0.9999591187012001,2.0477239635906903e-17
18300,2.0569878413611984,0.5297384628352859,0.9968294789675299,0.9999619082448911,2.0575380741419944e-17
18400,2.053122141923948,0.5309283132987312,0.9973176101344965,0.9999645024907097,2.067349220077951e-17
18500,2.0492464902646015,0.5321112962785979,0.9977378332192174,0.9999669154351448,2.0771575128806395e-17
