Timestep (s),Sum Voltage (V),Carry Out Voltage (V),Sum Error Rate (Dimless),Carry Out Error Rate (Dimless),Energy Dissipation (J)
0,0.00691646174141851,2.4991498750758723,0.00029331658409115224,0.0002129344492115548,1.762668688604602e-19
100,0.01373068371083104,2.498299979016588,0.0004168561843658214,0.00022279945504810605,3.5045356480996825e-19
200,0.020443597829100636,2.497450318873669,0.0005843360134033526,0.00023308681087153005,5.226346633290262e-19
300,0.027057832443750478,2.496600901818832,0.0008083457667793503,0.00024381283119401242,6.928810746153476e-19
400,0.03357539861341368,2.4957517351360905,0.0011040787690079767,0.00025499437438836203,8.612611131981791e-19
500,0.03999825495585614,2.4949028262141426,0.001489613660478284,0.0002666488568897618,1.0278403828335796e-18
600,0.046328309365434514,2.494054182539035,0.0019861527803921586,0.00027879426759547243,1.1926818913909007e-18
700,0.05256742066255114,2.493205811687097,0.0026182102753269376,0.00029144918247192564,1.355846161229925e-18
800,0.05871740017850358,2.492357721318129,0.003413734466114038,0.00030463277935166566,1.5173913351877654e-18
900,0.0647800132785808,2.491509919168842,0.004404150006027896,0.0003183648529274663,1.6773732782987535e-18
1000,0.07075698082619834,2.4906624130465405,0.0056243072483184164,0.00033266582992852456,1.8358456753730615e-18
1100,0.07664998059074538,2.4898152108230303,0.007112328961300873,0.0003475567844829497,1.9928601245620374e-18
1200,0.08246064860156938,2.488968320428758,0.008909347974774384,0.0003630594536517817,2.148466227039348e-18
1300,0.0881905804506122,2.488121749847164,0.011059133349786698,0.0003791962531348725,2.3027116729276245e-18
1400,0.09384133254594682,2.4872755071092425,0.013607607030191926,0.00039599029313941436,2.4556423236003608e-18
1500,0.0994144233182817,2.4864296002883077,0.016602257427875133,0.0004134653944050104,2.607302290488371e-18
1600,0.1049113343825383,2.4855840374949514,0.020091460772623804,0.00043164610437840256,2.75773401051897e-18
1700,0.1103335116565149,2.4847388268721913,0.024123725087648706,0.0004505577135287542,2.906978318314584e-18
1800,0.11568236643837712,2.4838939765907995,0.028746875120342463,0.00047022627179749144,3.055074515275863e-18
1900,0.12095927644479942,2.4830494948448094,0.03400719928908391,0.0004906786051723788,3.2020604356721177e-18
2000,0.1261655868114212,2.482205389847189,0.03994858157018233,0.0005119423323813876,3.3479725098594796e-18
2100,0.13130261105725494,2.481361669825681,0.04661164216665614,0.0005340458816871507,3.492845824744626e-18
2200,0.1363716320144793,2.4805183430187987,0.054032910748526564,0.0005570185077875545,3.636714181609143e-18
2300,0.14137390272514402,2.479675417671979,0.0622440550624167,0.0005808903087972661,3.779610151406549e-18
2400,0.14631064730614923,2.4788329020338797,0.0712711858526528,0.0006056922433104184,3.921565127640998e-18
2500,0.15118306178375407,2.4779908043528205,0.08113425643376504,0.0006314561475292413,4.062609376933605e-18
2600,0.15599231489898321,2.4771491328733632,0.0918465720526096,0.0006582147524465398,4.202772087378995e-18
2700,0.16073954888497488,2.476307895833025,0.10341442054278938,0.0006860017010754671,4.342081414791715e-18
2800,0.1654258802175558,2.4754671014591203,0.11583683188195049,0.0007148515657074972,4.4805645269386865e-18
2900,0.17005240034002475,2.4746267579657277,0.12910547028608355,0.0007447998651927135,4.6182476458509225e-18
3000,0.17462017636324478,2.4737868735507766,0.14320465858009634,0.0007758830822269802,4.755156088304471e-18
3100,0.17913025174197145,2.4729474563932508,0.15811153091552044,0.0008081386806302326,4.891314304557607e-18
3200,0.18358364692842016,2.472108514650505,0.1737963065888588,0.0008416051226087795,5.026745915428174e-18
3300,0.1879813600039287,2.471270056455688,0.19022267484304123,0.0008763218859814126,5.161473747792193e-18
3400,0.19232436728962332,2.4704320899152754,0.20734827817914414,0.0009123294813589977,5.295519868582058e-18
3500,0.19661362393683826,2.4695946231066968,0.22512527990446163,0.0009496694692611163,5.4289056173599725e-18
3600,0.20085006449815326,2.4687576640760684,0.24350100041095235,0.0009883844771558792,5.561651637539742e-18
3700,0.20503460347975147,2.467921220836016,0.26241860600198486,0.0010285182164064821,5.693777906327701e-18
3800,0.20916813587580696,2.4670853013635914,0.28181783393509763,0.0010701154991102912,5.825303763451336e-18
3900,0.21325153768563834,2.4662499135982756,0.30163573767556995,0.001113222254813584,5.956247938742055e-18
4000,0.21728566641422378,2.4654150654400704,0.32180743709855286,0.0011578855470852911,6.0866285786368155e-18
4100,0.2212713615567553,2.46458076474767,0.34226685946949564,0.0012041535899340872,6.2164632716615356e-18
4200,0.22520944506780258,2.463747019336714,0.3629474583989901,0.001252075764052174,6.3457690729578804e-18
4300,0.2291007218156736,2.4629138369781187,0.38378289953731337,0.0013017026328667747,6.474562527913736e-18
4400,0.2329459800225117,2.4620812253964792,0.40470770347327834,0.001353085958384348,6.602859694956785e-18
4500,0.23674599169067007,2.4612491922685487,0.4256578380673103,0.0014062787168078739,6.7306761675699114e-18
4600,0.24050151301586498,2.460417745221784,0.4465712542184126,0.0014613351139109998,6.858027095586789e-18
4700,0.24421328478757504,2.4595868918329593,0.4673883607888967,0.0015183106001491753,6.984927205826097e-18
4800,0.24788203277716717,2.4587566396268468,0.4880524360460292,0.0015772618854900111,7.111390822123063e-18
4900,0.25150846811419897,2.457926996074957,0.5085099744917827,0.0016382469539454325,7.237431884817981e-18
5000,0.25509328765129485,2.4570979685943426,0.5287109693154308,0.0017013250777863087,7.363063969762639e-18
5100,0.2586371743180342,2.45626956454646,0.5486091319023308,0.0017665568314184643,7.488300306907493e-18
5200,0.2621407974642181,2.4554417912360877,0.5681620508551823,0.001834004104905862,7.613153798535053e-18
5300,0.26560481319291546,2.4546146559103,0.5873312938296007,0.001903730117115754,7.737637037208249e-18
5400,0.2690298646836291,2.453788165757493,0.6060824561556448,0.001975799428471814,7.86176232350684e-18
5500,0.27241658250591755,2.4529623279064614,0.6243851607191537,0.002050277953293933,7.985541683630308e-18
5600,0.2757655849238434,2.4521371494255275,0.642213013922359,0.0021272329717040295,8.108986886952169e-18
5700,0.27907747819153544,2.451312637321714,0.6595435227450313,0.002206733141079109,8.232109463618883e-18
5800,0.2823528568401645,2.4504887985399657,0.6763579780021488,0.00228884850703448,8.354920722296435e-18
5900,0.2855923039566576,2.449665639962415,0.6926413088577488,0.0023736505139140274,8.477431768179753e-18
6000,0.288796391454403,2.448843168407691,0.7083819135236159,0.002461212014771008,8.599653521395018e-18
6100,0.29196568033622977,2.448021390630269,0.7235714708634842,0.0025516072808159374,8.72159673594289e-18
6200,0.29510072094992684,2.44720031331986,0.738204737353688,0.0026449120103193557,8.843272019352756e-18
6300,0.2982020532365339,2.4463799431008417,0.7522793335349067,0.002741203336941389,8.9646898532451e-18
6400,0.30127020697167584,2.4455602865317236,0.7657955237409471,0.002840559837476775,9.085860615032089e-18
6500,0.30430570200012663,2.44474135010465,0.7787559925207735,0.0029430615389895998,9.206794601027345e-18
6600,0.3073090484638686,2.443923140244938,0.7911656207913833,0.0030487899253256456,9.327502051286015e-18
6700,0.3102807470238397,2.4431056633106483,0.8030312643794104,0.0031578279429770317,9.447993176558865e-18
6800,0.3132212890755751,2.442288925592188,0.8143615372373827,0.003270260006286163,9.568278187821918e-18
6900,0.31613115695893945,2.4414729333119474,0.8251666012621114,0.0033861720019670027,9.68836732894087e-18
7000,0.3190108241621493,2.440657692623965,0.835457964302881,0.0035056512929269035,9.808240795571118e-18
7100,0.3218607555201745,2.4398432096136196,0.84524828762914,0.003628786721373012,9.927906172465622e-18
7200,0.32468140740844803,2.4390294902973517,0.854551203837502,0.003755668611182039,1.0047371099713112e-17
7300,0.32747322793139216,2.4382165406224137,0.8633811459063869,0.0038863887695204102,1.0166643047760058e-17
7400,0.3302366571059461,2.4374043664666414,0.8717531878703628,0.004021040487695804,1.0285729324515207e-17
7500,0.3329721270402249,2.4365929736382537,0.879682897374376,0.004159718541222768,1.0404637082155104e-17
7600,0.3356800621074888,2.4357823678756745,0.887186200183322,0.0043025191890897485,1.052337332364963e-17
7700,0.3383608791155511,2.4349725548473784,0.8942792565631921,0.004449540172208444,1.0641944909025104e-17
7800,0.34101498747179027,2.4341635401517574,0.9009783493155905,0.00460088071103415,1.0760358561381094e-17
7900,0.34364278934387193,2.43335532931701,0.9072997831356248,0.004756641502336345,1.0878620872675934e-17
8000,0.346244679816338,2.4325479278010493,0.9132597948728566,0.004916924715114401,1.0996738309294799e-17
8100,0.34882104704318545,2.4317413409914335,0.918874474203736,0.005081833985636441,1.1114717217413225e-17
8200,0.3513722723965486,2.4309355742053116,0.9241596941701393,0.005251474411591683,1.1232563828168101e-17
8300,0.35389873061161625,2.43013063268939,0.9291310510003563,0.005425952545346502,1.1350284262647349e-17
8400,0.35640078992788676,2.4293265216199145,0.933803812604089,0.0056053763862863315,1.1467884536708817e-17
8500,0.3588788122268762,2.4285232461026713,0.9381928751201418,0.005789855372236863,1.1585370565638256e-17
8600,0.3613331531663957,2.4277208111730024,0.9423127268926745,0.0059795003699523175,1.1702748168655656e-17
8700,0.3637641623114844,2.426919221795836,0.946177419257548,0.006174423664660922,1.1820023073278744e-17
8800,0.3661721832621072,2.4261184828657334,0.9498005435331255,0.006374738948656922,1.1937200919551909e-17
8900,0.36855755377771376,2.425318599206949,0.9531952136283752,0.006580561308933253,1.2054287264148436e-17
9000,0.37092060589875125,2.4245195755735023,0.9563740537041694,0.006792007213843765,1.2171287584353502e-17
9100,0.3732616660652147,2.423721416649267,0.9593491903501836,0.007009194498789562,1.228820728193508e-17
9200,0.375581055232331,2.422924127048068,0.9621322487688755,0.007232242350924234,1.2405051686909508e-17
9300,0.3778790889834536,2.4221277113137925,0.9647343524887557,0.007461271292867666,1.2521826061208251e-17
9400,0.3801560776402506,2.4213321739205123,0.9671661261609525,0.007696403165428967,1.2638535602252084e-17
9500,0.38241232637026745,2.420537519272617,0.9694377010252528,0.007937761109330088,1.2755185446438679e-17
9600,0.38464813529193465,2.419743751704956,0.9715587226638777,0.00818546954592958,1.2871780672549378e-17
9700,0.3868637995771012,2.418950875482993,0.973538360692855,0.0084396541569417,1.2988326305080728e-17
9800,0.38905960955115493,2.418158894802967,0.9753853200715751,0.00870044186315111,1.3104827317506181e-17
9900,0.3912358507908116,2.417367813792064,0.9771078537407745,0.00896796080211959,1.3221288635473192e-17
10000,0.3933928042196217,2.416577636508597,0.978713776327504,0.009242340304888685,1.3337715139940826e-17
10100,0.39553074620127804,2.4157883669421927,0.9802104786825515,0.00952371087167414,1.3454111670262841e-17
10200,0.39764994863077385,2.4150000090139874,0.9816049430410658,0.009812204146560255,1.3570483027221118e-17
10300,0.39975067902347217,2.414212566576829,0.9829037586208861,0.010107952891186933,1.3686833976014213e-17
10400,0.4018332006021583,2.413426043415487,0.9841131374951111,0.010411090957444524,1.3803169249205722e-17
10500,0.40389777238210484,2.412640443246867,0.9852389305958502,0.010721753259171796,1.3919493549637097e-17
10600,0.4059446492542399,2.4118557697202325,0.986286643724942,0.011040075742865918,1.403581155330946e-17
10700,0.4079740820664365,2.411072026417433,0.9872614534645563,0.011366195357410458,1.4152127912239017e-17
10800,0.40998631770300337,2.4102892168531356,0.9881682228963548,0.01170025002282693,1.4268447257290507e-17
10900,0.41198159916240445,2.409507344475063,0.9890115170520465,0.012042378598060566,1.4384774200993242e-17
11000,0.41396016563327237,2.408726412664236,0.9897956180310413,0.012392720847804961,1.4501113340344225e-17
11100,0.41592225256875165,2.4079464247352185,0.9905245397324031,0.012751417408378485,1.4617469259602823e-17
11200,0.4178680917592276,2.4071673839363705,0.9912020421586132,0.01311860975266299,1.473384653308158e-17
11300,0.4197979114034691,2.4063892934501,0.9918316452577948,0.013494440154114828,1.4850249727937693e-17
11400,0.42171193617824615,2.405612156393121,0.9924166422791507,0.013879051649859586,1.496668340696978e-17
11500,0.4236103873064538,2.4048359758167153,0.9929601126234756,0.014272588002887554,1.508315213142459e-17
11600,0.4254934826237825,2.4040607547069937,0.9934649341768264,0.014675193663360675,1.5199660463818422e-17
11700,0.42736143664397813,2.403286495985164,0.9939337951208348,0.015087013729046528,1.531621297077802e-17
11800,0.4292144606227284,2.402513202507799,0.994369205217808,0.015508193904896217,1.5432814225905838e-17
11900,0.431052762620212,2.401740877067105,0.9947735065727416,0.015938880461782823,1.5549468812674698e-17
12000,0.4328765475623437,2.4009695223911973,0.9951488838777518,0.016379220194416177,1.5666044307588133e-17
12100,0.4346860173006269,2.4001991411443804,0.995497374147246,0.01682936037844851,1.5782432826023976e-17
12200,0.4364813706683255,2.399429735927433,0.9958208759541216,0.017289448726795942,1.589863791218714e-17
12300,0.43826280353355723,2.3986613092778977,0.996121158179883,0.017759633345189152,1.6014663033162593e-17
12400,0.4400305088512411,2.39789386367038,0.996399868293201,0.018240062686975977,1.6130511582273945e-17
12500,0.4417846767139248,2.3971274015168453,0.9966585401721841,0.018730885507198036,1.6246186882149713e-17
12600,0.44352549440152095,2.396361925166928,0.9968986014865413,0.01923225081596114,1.636169218753418e-17
12700,0.44525314642998587,2.39559743690824,0.9971213806564676,0.019744307831122354,1.6477030687874014e-17
12800,0.44696781459895657,2.3948339389666846,0.9973281134055052,0.020267205930320276,1.659220550970721e-17
12900,0.44866967803838426,2.394071433506778,0.9975199489248676,0.020801094602364345,1.6707219718876927e-17
13000,0.45035891325417754,2.39330992263197,0.9976979556667798,0.02134612339801778,1.6822076322589644e-17
13100,0.4520356941728918,2.392549408384971,0.9978631267843119,0.02190244188019186,1.6936778271334285e-17
13200,0.4537001921854801,2.391789892748085,0.9980163852349914,0.022470199573578764,1.705132846067678e-17
13300,0.4553525761901329,2.3910313776435403,0.9981585885651892,0.023049545913752856,1.7165729732942513e-17
13400,0.45699301263422715,2.3902738649338304,0.9982905333918994,0.023640630195762347,1.7279984878797626e-17
13500,0.4586216655554059,2.3895173564220538,0.9984129595980994,0.02424360152224092,1.7394096638738642e-17
13600,0.46023869662181904,2.388761853852257,0.9985265542573869,0.024858608751070377,1.7508067704498797e-17
13700,0.461844265171527,2.3880073589097845,0.9986319553030621,0.02548580044261506,1.7621900720378445e-17
13800,0.46343852825110576,2.3872538732216273,0.9987297549562641,0.026125324806564265,1.7735598284506014e-17
13900,0.4650216406534649,2.386501398356776,0.9988205029271969,0.026777329648409287,1.7849162950035285e-17
14000,0.46659375495489913,2.3857499358265764,0.998904709402886,0.02744196231558549,1.7962597226284125e-17
14100,0.46815502155138694,2.384999487085089,0.9989828478343116,0.028119369643304082,1.807590357981924e-17
14200,0.46970558869416357,2.3842500535294473,0.9990553575351678,0.028809697900115006,1.8189084435491023e-17
14300,0.4712456025245784,2.3835016365002244,0.9991226461039044,0.029513092733220447,1.830214217742219e-17
14400,0.472775207108255,2.382754237281794,0.9991850916801207,0.030229699113578867,1.8415079149953487e-17
14500,0.47429454446857494,2.382007857102701,0.9992430450458132,0.030959661280823614,1.852789765854946e-17
14600,0.4758037546194961,2.3812624971360297,0.9992968315814129,0.031703122688033325,1.8640599970666968e-17
14700,0.47730297559772084,2.3805181584997737,0.9993467530860097,0.032460225946384424,1.8753188316588915e-17
14800,0.47879234349423516,2.3797748422572114,0.9993930894706317,0.03323111276971358,1.8865664890225392e-17
14900,0.4802719924852286,2.379032549417279,0.9994361003329444,0.03401592391902919,1.897803184988429e-17
15000,0.4817420548624108,2.378291280934947,0.9994760264212436,0.0348147991470007,1.90902913190132e-17
15100,0.4832026610627383,2.3775510377115983,0.9995130909951503,0.035627877142454745,1.9202445386914365e-17
15200,0.4846539396975657,2.376811820595408,0.9995475010899696,0.03645529547491777,1.9314496109434155e-17
15300,0.4860960175812323,2.3760736303817227,0.9995794486912492,0.037297190539232083,1.9426445509628588e-17
15400,0.4875290197591046,2.375336467813444,0.9996091118256668,0.038153697500278305,1.953829557840616e-17
15500,0.4889530695350775,2.374600333581409,0.9996366555739922,0.039024950237841693,1.9650048275149246e-17
15600,0.49036828849854913,2.373865228324778,0.9996622330115025,0.03991108129164611,1.9761705528315177e-17
15700,0.49177479655089,2.3731311526314167,0.9996859860808852,0.04081222180659627,1.9873269236018073e-17
15800,0.49317271193140516,2.372398107038283,0.9997080464023355,0.04172850147825624,1.998474126659238e-17
15900,0.4945621512428076,2.3716660920318153,0.9997285360252444,0.04266004849859595,2.0096123459139032e-17
16000,0.4959432294762138,2.3709351080483185,0.9997475681255886,0.043606989502040006,2.020741762405511e-17
16100,0.497316060035672,2.3702051554743533,0.999765247652852,0.04456944951184916,2.0318625543547736e-17
16200,0.4986807547622328,2.3694762346471254,0.9997816719300553,0.0455475518868651,2.0429748972133e-17
16300,0.5000374239575698,2.3687483458548755,0.9997969312102291,0.04654141826865088,2.0540789637120566e-17
16400,0.5013861764071675,2.368021489337269,0.9998111091924362,0.04755116852905905,2.0651749239084652e-17
16500,0.5027271194030783,2.3672956652857873,0.9998242835002356,0.04857692071825659,2.0762629452321957e-17
16600,0.5040603587662614,2.3665708738441187,0.9998365261252837,0.04961879101323563,2.0873431925297123e-17
16700,0.5053859988685142,2.36584711510855,0.9998479038385801,0.050676893666844136,2.0984158281076304e-17
16800,0.5067041426540039,2.365124389128358,0.9998584785716896,0.05175134095736167,2.109481011774928e-17
16900,0.5080148916604077,2.3644026959062034,0.99986830777011,0.05284224313865382,2.120538900884069e-17
17000,0.5093183460396666,2.3636820353985195,0.9998774447208024,0.05394970839092916,2.1315896503710748e-17
17100,0.5106146045783715,2.3629624075159086,0.9998859388557588,0.05507384277213134,2.142633412794595e-17
17200,0.511903764717777,2.3622438121235314,0.9998938360333472,0.05621475016999278,2.1536703383740127e-17
17300,0.5131859225734616,2.3615262490415017,0.9999011787990527,0.05737253225477523,2.164700575026625e-17
17400,0.5144611729546327,2.360809718045277,0.999908006627115,0.05854728843272872,2.1757242684039356e-17
17500,0.5157296093830928,2.3600942188660534,0.9999143561444589,0.059739115800289344,2.1867415619270936e-17
17600,0.5169913241118655,2.3593797511911547,0.9999202613382101,0.06094810909904813,2.197752596821511e-17
17700,0.518246408143499,2.3586663146644278,0.9999257537479975,0.06217436067150883,2.2087575121506918e-17
17800,0.5194949512480401,2.3579539088866324,0.9999308626441574,0.063417960417668,2.2197564448493006e-17
17900,0.5207370419807005,2.357242533415834,0.9999356151928709,0.06467899575243119,2.2307495297555018e-17
18000,0.5219727676992112,2.3565321877677947,0.9999400366091956,0.06595755156389949,2.2417368996425918e-17
18100,0.5232022145808751,2.355822871416365,0.9999441502988787,0.06725371017253823,2.252718685249956e-17
18200,0.5244254676393244,2.3551145837938745,0.9999479779897761,0.06856755129126024,2.26369501531337e-17
18300,0.5256426107409927,2.3544073242915213,0.9999515398536409,0.06989915198643581,2.27466601659467e-17
18400,0.5268537266212968,2.353701092259763,0.9999548546189914,0.07124858663985956,2.2856318139108177e-17
