Timestep (s),Sum Voltage (V),Carry Out Voltage (V),Sum Error Rate (Dimless),Carry Out Error Rate (Dimless),Energy Dissipation (J)
0,0.00691646174141851,2.4992389198382488,0.00029331658409115224,0.00021192482789778033,2.069119020473493e-19
100,0.013773729551739944,2.4984785179831372,0.00041777119822716813,0.00022069236438659878,4.1103523766391113e-19
200,0.020573810428592756,2.497718798638707,0.0005881275239636441,0.00022978922354444098,6.124641307760474e-19
300,0.027318711120819118,2.4969597660691254,0.0008186213862885205,0.000239226304571849,8.1128926336230015e-19
400,0.034010368670235484,2.496201424590226,0.001126974690436211,0.0002490148064434594,1.0075980195074358e-18
500,0.040650653062497065,2.4954437785613472,0.0015349686094778825,0.0002591662338848888,1.2014746116911604e-18
600,0.047241369757178624,2.494686832377456,0.002069035986656864,0.00026969240339547174,1.3930002021412188e-18
700,0.053784262103363824,2.493930590461552,0.0027608528848210856,0.0002806054493156296,1.5822530194731082e-18
800,0.06028101364667396,2.493175057257338,0.0036479044263056926,0.000291917829937538,1.7693084708218516e-18
900,0.0667332503333364,2.4924202372221527,0.004773995605210302,0.00030364233365476334,1.954239249655591e-18
1000,0.07314254261656904,2.4916661348201536,0.006189673964988707,0.0003157920851524221,2.137115439447567e-18
1100,0.07951040747026512,2.4909127545157452,0.007952528281533033,0.0003283805516339777,2.3180046133719377e-18
1200,0.08583831031468188,2.4901601007672434,0.01012732603491473,0.000341421549084564,2.496971930178845e-18
1300,0.09212766685857497,2.4894081780207684,0.012785952819901247,0.0003549292485653943,2.674080226395494e-18
1400,0.09837984486197328,2.488656990704359,0.016007119204940468,0.0003689181825421439,2.8493901049926305e-18
1500,0.10459616582355723,2.4879065432223033,0.019875805082743447,0.00038340325124086583,3.0229600206489526e-18
1600,0.1107779065963877,2.4871568399496744,0.02448241833176612,0.0003983997290325503,3.1948463617397617e-18
1700,0.11692630093552545,2.4864078852270697,0.029921653563602213,0.0004139232708434415,3.3651034525527534e-18
1800,0.12304254098108863,2.485659683355544,0.03629104765912816,0.00042998991858844704,3.5337834817805795e-18
1900,0.12912777868020678,2.484912238591734,0.04368924134105656,0.0004466161076261965,3.7009369915694325e-18
2000,0.1351831271498918,2.4841655551431603,0.052213969694868356,0.0004638186732338623,3.866612790559419e-18
2100,0.14120966198403184,2.483419637163713,0.06195981872011602,0.00048161485709852236,4.030857982971838e-18
2200,0.14720842250730523,2.4826744887493057,0.07301579895509913,0.0005000223138265092,4.193718033413255e-18
2300,0.15318041297855753,2.481930113933695,0.08546280020286634,0.0005190591174626391,4.355236829163216e-18
2400,0.159126603746047,2.481186516684464,0.09937100261611609,0.00053874376802443,4.515456740038821e-18
2500,0.16504793235684082,2.48044370089916,0.11479732813057231,0.0005590951980425363,4.674418675926557e-18
2600,0.17094530462252042,2.4797016704015826,0.13178302181584312,0.0005801327791111754,4.832162142068801e-18
2700,0.1768195956432474,2.478960428938221,0.15035145461891908,0.0006018763284415529,4.98872529218948e-18
2800,0.1826716507921288,2.4782199801748317,0.17050623686287714,0.0006243461154209484,5.144144979540738e-18
2900,0.188502286661726,2.477480327693152,0.19222972559317308,0.0006475628681714696,5.298456805949693e-18
3000,0.194312291974453,2.476741474987751,0.21548199852298278,0.0006715477801093606,5.451695168941783e-18
3100,0.2001024284585216,2.4760034254630052,0.24020035323500166,0.0006963225165000919,5.603893307014717e-18
3200,0.20587343169100802,2.4752661824302025,0.26629937298826367,0.0007219092210111189,5.755083343134473e-18
3300,0.21162601190953265,2.4745297491047644,0.29367158068918353,0.0007483305222578673,5.9052963265224926e-18
3400,0.21736085479397216,2.4737941286035885,0.3221886812081851,0.000775609540340283,6.054562272800725e-18
3500,0.22307862221955016,2.4730593239425027,0.3517033702573866,0.0008037698933694992,6.202910202559004e-18
3600,0.2287799529825868,2.47232533803383,0.38205166654257394,0.0008328357039864009,6.350368178406875e-18
3700,0.2344654635001209,2.4715921736840603,0.4130557039058701,0.0008628316058612029,6.496963340569883e-18
3800,0.24013574848456237,2.4708598335916254,0.444526902654955,0.0008937827501834805,6.6427219410881474e-18
3900,0.2457913815944712,2.4701283203447746,0.4762694250735233,0.0009257148121288861,6.787669376672944e-18
4000,0.2514329160625083,2.4693976364195453,0.5080838098928657,0.0009586539973160946,6.931830220275055e-18
4100,0.2570608853015509,2.468667784177831,0.5397706747295116,0.0009926270482365496,7.075228251416581e-18
4200,0.26267580348991765,2.467938765865537,0.571134374375498,0.001027661250665668,7.21788648533604e-18
4300,0.26827816613660066,2.4672105836108256,0.6019865063375618,0.0010637844400522845,7.359827200994704e-18
4400,0.27386845062736176,2.4664832394224474,0.6321491628927584,0.0011010250078843375,7.50107196799027e-18
4500,0.2794471167525054,2.4657567351881546,0.6614578406773877,0.0011394119080254672,7.641641672422253e-18
4600,0.28501460721710314,2.4650310726731934,0.6897639337877526,0.0011789746630307407,7.781556541751743e-18
4700,0.29057134813440905,2.4643062535188753,0.7169367537406932,0.001219743370430404,7.920836168696522e-18
4800,0.2961177495031664,2.463582279241224,0.7428650385265737,0.001261748708986432,8.059499534200946e-18
4900,0.301654205669477,2.4628591512296927,0.7674579324607396,0.001305021944920215,8.197565029518437e-18
5000,0.30718109577386987,2.4621368707459537,0.7906454376934144,0.0013495949381093775,8.33505047744294e-18
5100,0.31269878418417646,2.461415438922756,0.8123783562323582,0.001395500148250628,8.471973152724254e-18
5200,0.31820762091479204,2.460694856762849,0.832627757436928,0.0014427706409960717,8.60834980170076e-18
5300,0.32370794203287545,2.4599751251379676,0.8513840195685485,0.0014914400940498895,8.744196661181693e-18
5400,0.3292000700520127,2.4592562447878845,0.8686555047077091,0.0015415428032377054,8.879529476609863e-18
5500,0.33468431431384665,2.458538216319517,0.8844669339233459,0.0015931136885374286,9.014363519534434e-18
5600,0.3401609713581514,2.4578210402060936,0.8988575339334164,0.0016461883000796762,9.148713604422196e-18
5700,0.3456303252818068,2.457104716786379,0.9118790277161253,0.0017008028241096707,9.282594104834607e-18
5800,0.3510926480871106,2.456389246263949,0.9235935398545001,0.0017569940889184954,9.416018968996752e-18
5900,0.35654820001984106,2.455674628706522,0.9340714831760811,0.0018147995707347153,9.549001734783349e-18
6000,0.3619972298974685,2.45496086404534,0.9433894869253702,0.0018742573995859102,9.68155554414584e-18
6100,0.3674399754278939,2.454247952074597,0.9516284187756686,0.0019354063651210174,9.813693157003693e-18
6200,0.37287666351907456,2.453535892450917,0.9588715439682619,0.001998285922400256,9.945426964622043e-18
6300,0.3783075105798834,2.4528246846928785,0.965202855272775,0.002062936197649301,1.0076769002496934e-17
6400,0.3837327228125296,2.452114328180581,0.9707055977718008,0.00212939799397982,1.0207730962768542e-17
6500,0.38915249649685696,2.451404822155257,0.9754610031101085,0.0021977127970759236,1.033832420618193e-17
6600,0.39456701826681795,2.4506961657189246,0.9795472391684992,0.00226792278084631,1.0468559773614111e-17
6700,0.39997646537941306,2.449988357834081,0.9830385734001155,0.00234007081304477,1.0598448397185417e-17
6800,0.40538100597636784,2.449281397323433,0.9860047414951904,0.0024142004608590506,1.0728000510972458e-17
6900,0.41078079933880973,2.448575282869668,0.9885105077300527,0.002490355996466076,1.0857226261339265e-17
7000,0.41617599613519657,2.447870013015261,0.9906153993433667,0.00256858240255875,1.0986135516902547e-17
7100,0.4215667386627342,2.447165586162312,0.9923735945368451,0.0026489253778432253,1.111473787814636e-17
7200,0.42695316108251324,2.4464620005724256,0.9938339421344393,0.0027314313425060854,1.12430426867009e-17
7300,0.4323353896485838,2.445759254366616,0.9950400904271064,0.002816147443656103,1.1371059034299539e-17
7400,0.4377135429311765,2.4450573455252487,0.9960307031253817,0.002903121560738686,1.1498795771427703e-17
7500,0.44308773203427065,2.4443562718880094,0.9968397414690946,0.0029924023109259013,1.1626261515676654e-17
7600,0.4484580608077013,2.4436560311539055,0.9974967932282903,0.0030840390544836227,1.1753464659814763e-17
7700,0.453824626053987,2.442956620881294,0.9980274314026943,0.0031780819001161476,1.1880413379588392e-17
7800,0.4591875177300549,2.4422580384879384,0.9984535877327492,0.0032745817102903807,1.2007115641264056e-17
7900,0.46454681914403023,2.441560281251091,0.9987939285356494,0.003373590106541813,1.2133579208923139e-17
8000,0.4699026071472505,2.4408633463076024,0.9990642227591117,0.0034751594747635117,1.2259811651520025e-17
8100,0.47525495232165876,2.440167230654055,0.9992776944115915,0.003579342970479571,1.2385820349714164e-17
8200,0.48060391916272227,2.439471931146921,0.9994453536115068,0.003686194524104902,1.2511612502486203e-17
8300,0.4859495662580181,2.4387774445027426,0.9995763023532375,0.0037957688461944805,1.2637195133548061e-17
8400,0.4912919464616208,2.4380837672983358,0.9996780126876593,0.003908121432682932,1.2762575097556451e-17
8500,0.49663110706441993,2.437390895971015,0.9997565763502819,0.004023308570114681,1.2887759086139135e-17
8600,0.5019670899604941,2.436698826818838,0.9998169259451324,0.004141387340873437,1.3012753633742895e-17
8700,0.5072999318096569,2.436007556000874,0.9998630286224637,0.004262415628402794,1.3137565123312024e-17
8800,0.5126296641962921,2.4353170795374846,0.9998980537957869,0.004386452122430384,1.326219979180588e-17
8900,0.5179563137845835,2.434627393310631,0.9999245168559738,0.004513556324191703,1.3386663735563887e-17
9000,0.5232799024702479,2.433938493064195,0.9999444010868647,0.004643788551656258,1.3510962915526204e-17
9100,0.5286004475288686,2.4332503744043166,0.9999592600978487,0.004777209944762273,1.3635080284503264e-17
9200,0.5339179617609265,2.4325630327997505,0.9999703030929289,0.004913882470658271,1.3758999641897853e-17
9300,0.539232453633625,2.4318764635822387,0.9999784652191637,0.0050538689289554295,1.3882726723484955e-17
9400,0.5445439274195937,2.431190661946897,0.9999844651033962,0.0051972329569932585,1.400626711211782e-17
9500,0.549852383332557,2.430505622952616,0.999988851514709,0.005344039035121151,1.412962624343439e-17
9600,0.555157817660049,2.4298213415224805,0.9999920408974933,0.005494352491998367,1.4252809411296436e-17
9700,0.5604602228932525,2.429137812444199,0.9999943473194002,0.005648239509913999,1.4375821772979047e-17
9800,0.565759587854038,2.4284550303705457,0.9999960061796618,0.00580576713013059,1.449866835412663e-17
9900,0.5710558978192759,2.427772989819819,0.9999971928334811,0.0059670032582535,1.4621354053490038e-17
10000,0.5763491346424908,2.4270916851763107,0.9999980371122034,0.006132016669628371,1.4743883647458252e-17
10100,0.5816392768729256,2.4264111106907857,0.9999986345596661,0.006300877014769224,1.486626179439691e-17
10200,0.5869262998720799,2.425731260480975,0.999999055063847,0.0064736548248200965,1.498849303880499e-17
10300,0.592210175927785,2.4250521285320787,0.9999993494398618,0.006650421517051641,1.511058181530005e-17
10400,0.5974908743658756,2.4243737086972805,0.9999995544148934,0.006831249400398809,1.5232532452441594e-17
10500,0.602768361659515,2.4236959946982717,0.9999996963765367,0.007016211681033724,1.5354349176401517e-17
10600,0.6080426015362311,2.423018980125784,0.9999997941717994,0.007205382467987742,1.5476036114489763e-17
10700,0.6133135550827153,2.422342658440134,0.9999998611828985,0.007398836778814477,1.5597597298542904e-17
10800,0.6185811808474367,2.421667022971775,0.9999999068562972,0.007596650545304118,1.5719036668182728e-17
10900,0.6238454349411221,2.420992066921858,0.9999999378214536,0.0077989006192444865,1.584035807395146e-17
11000,0.6291062711351485,2.4203177833628002,0.9999999587039512,0.008005664778237054,1.5961565280329775e-17
11100,0.6343636409578967,2.4196441652388647,0.999999972712619,0.008217021731567131,1.6082661968643418e-17
11200,0.6396174937891095,2.418971205366743,0.999999982060704,0.008433051126129465,1.6203651739863818e-17
11300,0.6448677769522989,2.4182988964361485,0.9999999882660533,0.008653833552413559,1.6324538117307782e-17
11400,0.6501144358052443,2.417627231010415,0.9999999923636959,0.008879450550550727,1.644532454924103e-17
11500,0.655357413828622,2.416956201527106,0.9999999950554348,0.009109984616420874,1.6566014411390058e-17
11600,0.6605966527128068,2.416285800298623,0.9999999968144501,0.009345519207827668,1.6686611009366532e-17
11700,0.6658320924428828,2.4156160195128287,0.9999999979579892,0.00958613875073644,1.6807117581008238e-17
11800,0.6710636713819015,2.41494685123367,0.9999999986975683,0.009831928645581356,1.6927537298640285e-17
11900,0.6762913263524233,2.4142782874018094,0.9999999991734265,0.010082975273642436,1.7047873271260163e-17
12000,0.6815149927163766,2.413610319835262,0.9999999994780318,0.010339366003492279,1.7168128546649982e-17
12100,0.6867346044532706,2.412942940230037,0.9999999996720184,0.010601189197515404,1.728830611341911e-17
12200,0.6919500942367928,2.4122761401607846,0.9999999997949289,0.01086853421849987,1.7408408902980183e-17
12300,0.6971613935098251,2.411609911081448,0.9999999998724101,0.01114149143630494,1.7528439791461408e-17
12400,0.70236843255791,2.4109442443259193,0.9999999999210064,0.011420152234602354,1.7648401601557827e-17
12500,0.7075711405811973,2.410279131108702,0.9999999999513325,0.011704609017692214,1.7768297104324187e-17
12600,0.7127694457649014,2.4096145625255763,0.9999999999701623,0.011994955217399128,1.7888129020911827e-17
12700,0.7179632753482992,2.4089505295542666,0.9999999999817955,0.01229128530004131,1.8007900024251977e-17
12800,0.7231525556922965,2.4082870230551174,0.9999999999889468,0.012593694773478825,1.81276127406877e-17
12900,0.7283372123455928,2.407624033771771,0.9999999999933211,0.01290228019423878,1.824726975155659e-17
13000,0.7335171701094695,2.406961552331846,0.9999999999959837,0.013217139174717785,1.8366873594726322e-17
13100,0.738692353101232,2.4062995692476252,0.9999999999975964,0.01353837039046002,1.8486426766084963e-17
13200,0.74386268481633,2.4056380749167423,0.9999999999985684,0.013866073587513905,1.860593172098793e-17
13300,0.7490280881891829,2.4049770596228726,0.9999999999991513,0.014200349589863381,1.8725390875663414e-17
13400,0.7541884856527371,2.4043165135364286,0.9999999999994993,0.014541300306933236,1.8844806608577965e-17
13500,0.7593437991967801,2.403656426715258,0.9999999999997059,0.01488902874116993,1.8964181261763876e-17
13600,0.7644939504250361,2.4029967891053428,0.9999999999998281,0.015243638995695474,1.9083517142109984e-17
13700,0.7696388606110705,2.4023375905415034,0.9999999999999,0.015605236282029034,1.92028165226174e-17
13800,0.7747784507530252,2.4016788207481055,0.999999999999942,0.0159739269278818,1.932208164362162e-17
13900,0.7799126416272119,2.401020469339767,0.9999999999999666,0.01634981838501759,1.9441314713982445e-17
14000,0.7850413538405858,2.400362525822071,0.9999999999999808,0.016733019237177404,1.9560517912243064e-17
14100,0.7901645078821278,2.399704979592279,0.999999999999989,0.017123639208068586,1.9679693387759608e-17
14200,0.7952820241731533,2.3990478199400456,0.9999999999999938,0.017521789169413493,1.9798843261802454e-17
14300,0.8003837687760382,2.398391036048138,0.9999999999999964,0.017927581149053906,1.9917940325299308e-17
14400,0.8054665910324111,2.397734616993157,0.999999999999998,0.018341128339109836,2.003697792716006e-17
14500,0.8105306448677203,2.3970785517462576,0.9999999999999989,0.018762545104188733,2.01559590226634e-17
14600,0.8155760784022519,2.3964228291738765,0.9999999999999993,0.019191946989639996,2.02748865167643e-17
14700,0.820603034192948,2.395767438038457,0.9999999999999997,0.019629450729851894,2.0393763266030066e-17
14800,0.8256116494642871,2.395112366999177,0.9999999999999998,0.020075174256587003,2.051259208050606e-17
14900,0.8306020563288408,2.394457604612682,0.9999999999999999,0.020529236707347853,2.06313757255152e-17
15000,0.8355743819980814,2.3938031393338166,0.9999999999999999,0.020991758433772323,2.0750116923395025e-17
15100,0.8405287489839718,2.393148959516357,1.0,0.021462861010051903,2.0868818355175882e-17
15200,0.8454652752918324,2.39249505341375,1.0,0.021942667241362845,2.0987482662203604e-17
15300,0.850384074604951,2.3918414091798494,1.0,0.022431301172311624,2.1106112447709846e-17
15400,0.8552852564613669,2.391188014869655,1.0,0.022928888095382627,2.1224710278333037e-17
15500,0.8601689264232307,2.3905348584400548,1.0,0.023435554559381844,2.1343278685592774e-17
15600,0.865035186239122,2.389881927750568,1.0,0.02395142837787234,2.146182016732032e-17
15700,0.8698841339996751,2.3892292105640887,1.0,0.024476638637589976,2.1580337189047725e-17
15800,0.8747158642868473,2.3885766945476328,1.0,0.025011315706836235,2.1698832185357957e-17
15900,0.8795304683171393,2.3879243672730857,1.0,0.025555591243832998,2.1817307561198313e-17
16000,0.8843280340790605,2.387272216217951,1.0,0.02610959820503933,2.193576569315927e-17
16100,0.8891086464651147,2.386620228766102,1.0,0.02667347085341265,2.205420893072085e-17
16200,0.8938723873985628,2.385968392208533,1.0,0.02724734476660995,2.2172639597468424e-17
16300,0.8986193359552072,2.3853166937441155,1.0,0.02783135684511695,2.2291059992279897e-17
16400,0.9033495684804259,2.3846651204803515,1.0,0.0284256453202969,2.2409472390485996e-17
16500,0.9080631587016733,2.384013659434132,1.0,0.0290303497623442,2.252787904500547e-17
16600,0.9127601778366492,2.3833622975324946,1.0,0.02964561108813657,2.2646282187456782e-17
16700,0.9174406946973316,2.3827110216133836,1.0,0.030271571568969757,2.2764684029247938e-17
16800,0.9221047757900518,2.3820598184264123,1.0,0.030908374838164887,2.2883086762646008e-17
16900,0.9267524854117857,2.381408674633626,1.0,0.03155616589853416,2.300149256182777e-17
17000,0.931383885742822,2.3807575768102662,1.0,0.03221509112969401,2.3119903583912965e-17
17100,0.9359990369359631,2.3801065114455375,1.0,0.032885298295211585,2.323832196998158e-17
17200,0.9405979972024021,2.3794554649433746,1.0,0.03356693655025711,2.3356749846076454e-17
17300,0.9451808228944166,2.378804423623212,1.0,0.03426015644491387,2.3475189324192614e-17
17400,0.9497475685850076,2.378153373720756,1.0,0.034965109937651784,2.359364250325459e-17
17500,0.9542982871446098,2.377502301388754,1.0,0.03568195039473565,2.3712111470082994e-17
17600,0.9588330298149905,2.376851192697773,1.0,0.036410832599771736,2.383059830035163e-17
17700,0.9633518462804491,2.376200033636972,1.0,0.03715191275883789,2.3949105059536328e-17
17800,0.9678547847364246,2.3755488101148803,1.0,0.037905348506032,2.4067633803856757e-17
17900,0.9723418919556116,2.374897507960176,1.0,0.038671298908724006,2.4186186581212395e-17
18000,0.976813213351682,2.374246112922468,1.0,0.03944992447249074,2.4304765432113836e-17
18100,0.9812687930407045,2.373594610673077,1.0,0.04024138714572434,2.4423372390610662e-17
18200,0.9857086739003481,2.3729429868058203,1.0,0.04104585032388275,2.454200948521701e-17
18300,0.9901328976269561,2.3722912268377963,1.0,0.04186347885336894,2.4660678739836052e-17
18400,0.9945415047905665,2.3716393162101728,1.0,0.042694439035020015,2.4779382174684547e-17
18500,0.9989345348879578,2.3709872402889767,1.0,0.04353889862717619,2.4898121807218687e-17
18600,1.0033120263937918,2.370334984365884,1.0,0.04439702684831792,2.5016899653062393e-17
18700,1.0076740168099225,2.3696825336590126,1.0,0.045268994379242256,2.5135717726939315e-17
18800,1.0120205427129376,2.369029873313718,1.0,0.04615497336475449,2.525457804360973e-17
18900,1.0163516397999968,2.3683769884033885,1.0,0.04705513741485812,2.5373482618813615e-17
19000,1.020667342933026,2.3677238639302436,1.0,0.04796966160541083,2.5492433470221123e-17
