Timestep (s),Sum Voltage (V),Carry Out Voltage (V),Sum Error Rate (Dimless),Carry Out Error Rate (Dimless),Energy Dissipation (J)
0,0.00691646174141851,2.499149875075819,0.00029331658409115224,0.00021293444921222093,1.7244400038062309e-19
100,0.013730683716411058,2.4982999790163203,0.00041685618448417117,0.00022279945505099263,3.431547570227525e-19
200,0.020443597831608495,2.4974503188728616,0.0005843360134765163,0.0002330868108817441,5.121889026702012e-19
300,0.02705783244375757,2.496600901816939,0.0008083457667796834,0.0002438128312183263,6.796003793331823e-19
400,0.03357539861552197,2.4957517351322847,0.0011040787691178888,0.00025499437443976536,8.454414581877037e-19
500,0.03999825497060662,2.494902826207256,0.0014896136614898081,0.0002666488569863512,1.0097625765693413e-18
600,0.04632830941135374,2.4940541825274973,0.0019861527844835525,0.0002787942677640043,1.1726124068178693e-18
700,0.052567420768230406,2.4932058116688705,0.002618210287420153,0.0002914491827494814,1.3340379224755875e-18
800,0.05871740038478906,2.4923577212906434,0.0034137344960952776,0.0003046327797878723,1.494084461950979e-18
900,0.06478001364087983,2.4915099191289283,0.004404150072185864,0.00031836485358727185,1.6527957897525373e-18
1000,0.07075698141675431,2.49066241299036,0.005624307382403937,0.0003326658308960839,1.8102141553910814e-18
1100,0.07664998150105391,2.4898152107460056,0.007112329215719471,0.0003475567858644002,1.9663803500421604e-18
1200,0.08246064994487196,2.488968320325499,0.008909348432451059,0.0003630594555805722,2.1213337610559327e-18
1300,0.08819058236450458,2.4881217497113917,0.011059134137304083,0.0003791962557754269,2.2751124243965785e-18
1400,0.09384133519501946,2.4872755069337136,0.013607608334766375,0.0003959902966933493,2.427753075089745e-18
1500,0.09941442689687381,2.486429600064734,0.016602259518761597,0.0004134653991166859,2.5792911957525476e-18
1600,0.10491133911760585,2.4855840372139193,0.020091464027466976,0.00043164611054213875,2.7297610632774337e-18
1700,0.11033351781056033,2.484738826523076,0.024123730024151246,0.00045055772149638074,2.8791957937383384e-18
1800,0.115682374312505,2.483893976161679,0.028746882433535736,0.0004702262819862302,3.0276273855846597e-18
1900,0.12095928638185124,2.483049494322376,0.03400720989423467,0.000490678618076057,3.1750867611862407e-18
2000,0.12616559919924297,2.4822053892166562,0.039948596651217305,0.0005119423485784313,3.3216038067900097e-18
2100,0.13130262633203188,2.481361669070689,0.04661166322961974,0.0005340459018554622,3.4672074109469374e-18
2200,0.13637165066419613,2.4805183421213175,0.05403293967944123,0.0005570185327142818,3.611925501465792e-18
2300,0.14137392529317394,2.479675416612207,0.06224409418859611,0.0005808903393957898,3.755785080948254e-18
2400,0.1463106743949123,2.478832900790139,0.0712712380061502,0.0006056922806352283,3.898812260958161e-18
2500,0.15118309405854066,2.477990802901452,0.08113432501562479,0.0006314561927927009,4.041032294875787e-18
2600,0.15599235309184561,2.477149131188615,0.0918466610960792,0.0006582148070403138,4.182469609486416e-18
2700,0.16073959379878466,2.4763078938869376,0.103414534773828,0.0006860017665897278,4.323147835350842e-18
2800,0.1654259327301364,2.4754670992214107,0.11583697677490012,0.0007148516439557939,4.463089836003785e-18
2900,0.17005246140844432,2.474626755403667,0.12910565211271097,0.0007447999582366194,4.602317736024687e-18
3000,0.17462024702820303,2.4737868706290644,0.14320488444989277,0.0007758831924039589,4.7408529480239246e-18
3100,0.17913033313232782,2.4729474530738864,0.15811180880553355,0.0008081388105856124,4.878716198585897e-18
3200,0.1835837402658512,2.472108510892654,0.1737966453613593,0.0008416052753282832,5.015927553209152e-18
3300,0.18798146660770362,2.4712700522155453,0.1902230842495466,0.0008763220648280168,5.152506440282278e-18
3400,0.19232448858151857,2.4704320851459207,0.20734876884972442,0.0009123296901127897,5.288471674132879e-18
3500,0.19661376144619006,2.4695946177579504,0.2251258633215203,0.0009496697121632591,5.423841477185817e-18
3600,0.20085021986702478,2.468757658094338,0.24350168886694845,0.0009883847589547967,5.558633501265439e-18
3700,0.20503477846824475,2.4679212141641402,0.2624194125411575,0.0010285185424108167,5.692864848075368e-18
3800,0.20916833236751903,2.467085293940679,0.28181877227954133,0.001070115875243971,5.826552088888211e-18
3900,0.21325175769323923,2.466249905359537,0.30163682213628507,0.0011132226876763296,5.959711283476344e-18
4000,0.21728591208518108,2.465415056316647,0.3218086824726708,0.0011578860440185634,6.0923579983137995e-18
4100,0.22127163517920254,2.4645807546664553,0.3422682809250954,0.0012041541590925853,6.224507324078136e-18
4200,0.22520974907653593,2.46374700822017,0.36294907134913845,0.0012520764144805518,6.356173892480161e-18
4300,0.2291010587982968,2.4629138247440863,0.38378471950538595,0.0013017033745832407,6.487371892448233e-18
4400,0.23294635272572253,2.4620812119579827,0.4047097459516702,0.0013530868024703713,6.618115085692933e-18
4500,0.23674640302669495,2.461249177533594,0.42566011837184503,0.0014062796755058837,6.74841682167684e-18
4600,0.24050196606902036,2.4604177290931495,0.446573787340669,0.0014613362007290798,6.8782900520132665e-18
4700,0.2442137828209949,2.459586874207982,0.46739116124902413,0.0015183118299733067,7.007747344316779e-18
4800,0.2478825792396659,2.458756620397198,0.48805551774818634,0.0015772632747069748,7.13680089552755e-18
4900,0.2515090666472726,2.4579269751264152,0.5085133505844243,0.0016382485205742592,7.265462544730633e-18
5000,0.25509394209628244,2.4570979458065576,0.5287146520586301,0.001701326841617723,7.393743785490462e-18
5100,0.2586378887234202,2.456269539792708,0.548613132543917,0.0017665588141677624,7.521655777720041e-18
5200,0.26214157609308386,2.455441764383021,0.568166379517401,0.0018340063303750043,7.64920935910355e-18
5300,0.2656056605305471,2.454614626817687,0.587335959407774,0.0019037326113686692,7.7764150560903e-18
5400,0.269030785445255,2.453788134277952,0.6060874662298463,0.001975802220021583,7.903283094477283e-18
5500,0.2724175816446195,2.452962293885186,0.624390521480054,0.002050281073304183,8.029823409596836e-18
5600,0.2757666676386156,2.4521371127000005,0.642218730111726,0.0021272364542034294,8.156045656125283e-18
5700,0.27907864993548537,2.451312597721418,0.6595495976112271,0.0022067370231924066,8.281959217527782e-18
5800,0.2823541233288804,2.45048875588608,0.6763644132708652,0.0022888528292300814,8.40757321515397e-18
5900,0.28559367117671997,2.4496655940675063,0.6926481047177298,0.0023736553202665656,8.532896516998399e-18
6000,0.28879786567206556,2.448843119075393,0.7083890686271451,0.00246121735324345,8.657937746139195e-18
6100,0.2919672681062564,2.448021337654955,0.7235789823410061,0.0025516132035614536,8.78270528886783e-18
6200,0.295102429124585,2.4472002564863033,0.7382126008418302,0.0026449185740022862,8.907207302522333e-18
6300,0.2982038889747639,2.4463798821838667,0.7522875432171039,0.002741210603080191,9.031451723035798e-18
6400,0.3012721777484038,2.445560221295848,0.7658040723995034,0.0028405678728096184,9.155446272211554e-18
6500,0.3043078156157725,2.444741280303714,0.7787648715994777,0.0029430704158645016,9.27919846473585e-18
6600,0.3073113130540203,2.4439230656217257,0.7911748204673488,0.0030487997221155805,9.40271561493854e-18
6700,0.310283171069098,2.4431055835964957,0.8030407736429256,0.0031578387445210243,9.52600484331175e-18
6800,0.31322388141158464,2.442288840506582,0.8143713439785651,0.0032702719043604667,9.649073082796146e-18
6900,0.3161339267866142,2.4414728425621126,0.825176692363124,0.0033861850957838113,9.771927084844001e-18
7000,0.3190137810580882,2.4406575959044363,0.8354683257344302,0.0035056656896662597,9.894573425267906e-18
7100,0.3218639094473646,2.439843106605809,0.845258904550366,0.0036288025367469112,1.0017018509883571e-17
7200,0.3246847687265986,2.4390293806691004,0.8545620606958871,0.0037556859700327294,1.0139268579954879e-17
7300,0.32747680740690405,2.438216424027535,0.8633922265370465,0.0038864078064562158,1.0261329717448949e-17
7400,0.3302404659215075,2.437404242544453,0.8717644755940893,0.004021061347763144,1.038320785010871e-17
7500,0.33297617680403735,2.4365928420130993,0.8796943750938941,0.004159741380619364,1.0504908756350152e-17
7600,0.3356843648621135,2.435782228156436,0.8871978504772243,0.00430254417592002,1.0626438069991151e-17
7700,0.3383654473463807,2.4349724066269784,0.8942910617771118,0.004449567487280648,1.0747801284818469e-17
7800,0.3410198341151286,2.4341633830066525,0.9009902916501559,0.004600910548704595,1.0869003758999263e-17
7900,0.34364792779463516,2.4333551628066736,0.9073118447308688,0.004756674071401346,1.0990050719343234e-17
8000,0.3462501239353553,2.432547751467449,0.9132719578887113,0.004916960239750634,1.1110947265421228e-17
8100,0.34882681116409825,2.4317411543584964,0.9188867208963415,0.0050818727063935976,1.1231698373545931e-17
8200,0.3513783713323055,2.4309353767783826,0.9241720069637401,0.005251516586441296,1.1352308900620064e-17
8300,0.353905179660548,2.4301304239546835,0.9291434125545736,0.005425998450781844,1.1472783587857252e-17
8400,0.3564076048793613,2.429326301043958,0.9338162058764368,0.005605426318485929,1.1593127064380587e-17
8500,0.35888600936652304,2.4285230131317412,0.9382052834236765,0.0057899096482862955,1.1713343850703662e-17
8600,0.36134074928088833,2.4277205652325544,0.9423251339487063,0.005979559329128414,1.1833438362098705e-17
8700,0.36377217469286593,2.4269189622899288,0.9461898092433838,0.006174487669782458,1.195341491185629e-17
8800,0.36618062971166054,2.426118209176446,0.9498129011248719,0.006374808387502373,1.2073277714440847e-17
8900,0.36856645260936044,2.4253183106937937,0.9532075240388395,0.006580636595729494,1.2193030888546169e-17
9000,0.37092997594196103,2.4245192715728328,0.9563863027159258,0.006792088790825268,1.2312678460054854e-17
9100,0.37327152666742297,2.4237210964736806,0.95936136434393,0.007009282837835418,1.2432224364905532e-17
9200,0.37559142626084663,2.422923789985806,0.9621443347472022,0.007232337955269896,1.2551672451871593e-17
9300,0.37788999082684716,2.422127356628137,0.964746338095492,0.007461374698897183,1.2671026485254991e-17
9400,0.38016753120920593,2.4213318008491784,0.9671779996962645,0.00769651494455148,1.279029014749859e-17
9500,0.3824243530978834,2.4205371270271443,0.9694494514566864,0.007937881869938046,1.290946704172041e-17
9600,0.38466075713346554,2.4197433394700996,0.9715703396335647,0.008185599935445764,1.3028560694173009e-17
9700,0.38687703900911613,2.41895044241611,0.9735498345210971,0.008439794863955963,1.3147574556631178e-17
9800,0.38907348957010346,2.418158440033407,0.9753966417570389,0.008700593619647146,1.3266512008710981e-17
9900,0.3912503949109742,2.417367336420557,0.9771190149575322,0.008968124385798859,1.3385376360123134e-17
10000,0.3934080364704378,2.4165771356066417,0.9787247694191672,0.009242516541588919,1.3504170852863627e-17
10100,0.3955466911240241,2.4157878415514507,0.9802212966537314,0.009523900637886995,1.3622898663344396e-17
10200,0.39766663127457647,2.4149994581456755,0.9816155795464052,0.009812408372049775,1.3741562904466848e-17
10300,0.39976812494064284,2.4142119892111173,0.9829142079519041,0.010108172561711926,1.386016662764091e-17
10400,0.40185143584281746,2.4134254385008993,0.9841233945650871,0.010411327117585967,1.3978712824752294e-17
10500,0.40391682348809455,2.4126398096996877,0.9852489909229869,0.010722007015266044,1.409720443008057e-17
10600,0.40596454325228365,2.4118551064239186,0.9862965034140152,0.01104034826604905,1.4215644322170655e-17
10700,0.40799484646054285,2.4110713322220327,0.9872711091872768,0.01136648788677097,1.4334035325660262e-17
10800,0.41000798046607284,2.410288490574714,0.988177671870633,0.01170056386867313,1.4452380213065848e-17
10900,0.41200418872703704,2.409506584895138,0.9890207570203657,0.012042715145299643,1.4570681706529585e-17
11000,0.4139837108817365,2.4087256185292207,0.9898046472381126,0.012393081559437857,1.468894247952992e-17
11100,0.41594678282209896,2.4079455947558785,0.990533356902278,0.012751803829112118,1.4807165158558206e-17
11200,0.41789363676552166,2.4071665167872873,0.991210646471413,0.013119023512638606,1.4925352324764018e-17
11300,0.4198245013251098,2.406388387769152,0.9918400363262059,0.013494882972753586,1.5043506515571707e-17
11400,0.4217396015783598,2.4056112107809757,0.9924248201248229,0.013879525339828724,1.5161630226270864e-17
11500,0.4236391591343196,2.4048349888363365,0.9929680776534489,0.014273094474183567,1.5279725911583373e-17
11600,0.4255233921992689,2.404059724883166,0.9934726871600996,0.014675734927513395,1.5397795987209824e-17
11700,0.4273925156409625,2.4032854218040343,0.9939413371651834,0.015087591903439557,1.5515842831358164e-17
11800,0.4292467410514625,2.4025120824164348,0.9943765377469379,0.015508811217208818,1.5633868786257558e-17
11900,0.43108627680861106,2.401739709473076,0.9947806313038664,0.015939539254547275,1.575187615966056e-17
12000,0.4329113281361602,2.4009683056621736,0.9951558027996642,0.016379922929693036,1.5869867226336872e-17
12100,0.4347220971626112,2.4001978736077474,0.9955040894989695,0.01683010964262377,1.598784422956214e-17
12200,0.43651878297878305,2.3994284158699197,0.9958273902046161,0.017290247235495992,1.6105809382605424e-17
12300,0.43830158169414657,2.398659934945217,0.9961274740089819,0.017760483948319195,1.6223764870219317e-17
12400,0.44007068649195946,2.397892433266873,0.9964059885735621,0.01824096837388367,1.6341712850136832e-17
12500,0.4418262876832217,2.397125913205135,0.9966644679520886,0.01873184941196071,1.6459655454579668e-17
12600,0.4435685727594933,2.3963603770675745,0.9969043399734192,0.019233276222799467,1.6577388259334564e-17
12700,0.4452977264441271,2.3955958270994047,0.9971269332010023,0.01974539817993981,1.6694898157582577e-17
12800,0.447013930738935,2.3948322654838043,0.9973334834858765,0.020268364822361495,1.6812190858526884e-17
12900,0.448717364969594,2.3940696943422446,0.9975251401312486,0.020802325805999056,1.6929271872957664e-17
13000,0.4504082058301355,2.3933081157348233,0.997702971686223,0.021347430854643412,1.7046146523614302e-17
13100,0.4520866274265328,2.3925475316606026,0.9978679713861307,0.021903829710252065,1.7162819954832446e-17
13200,0.45375280131942053,2.391787944057952,0.9980210622567186,0.022471672082701732,1.7279297141535208e-17
13300,0.45540689656595057,2.3910293548048975,0.9981631018991746,0.023051107598999088,1.739558289762214e-17
13400,0.4570490797608191,2.3902717657194716,0.9982948869725892,0.023642285751984238,1.7511681883804596e-17
13500,0.4586795150764729,2.389515178560071,0.9984171573900282,0.024245355848551142,1.762759861493153e-17
13600,0.4602983643025229,2.3887595950258165,0.9985306002438967,0.02486046695741173,1.7743337466845757e-17
13700,0.46190578688437867,2.3880050167569173,0.9986358534757559,0.025487767856432475,1.7858902682807082e-17
13800,0.46350193996111777,2.387251445335039,0.9987335093051912,0.02612740697957361,1.7974298379515406e-17
13900,0.46508697840261853,2.386498882283675,0.9988241174317612,0.02677953236345787,1.8089528552764026e-17
14000,0.4666610548459648,2.3857473290685216,0.9989081880234627,0.02744429159359818,1.820459708275067e-17
14100,0.46822431973114126,2.384996787097855,0.9989861945045515,0.028121831750318238,1.8319507739071468e-17
14200,0.4697769213360366,2.3842472577229143,0.9990585761549692,0.02881229935438767,1.8434264185420874e-17
14300,0.4713190058107705,2.383498742238284,0.9991257405330243,0.029515840312411168,1.8548869984018625e-17
14400,0.47285071721135785,2.3827512418822825,0.9991880657324007,0.030232599861997556,1.86633285997831e-17
14500,0.47437219753272913,2.3820047578373504,0.99924590248399,0.030962722516740482,1.87776434042688e-17
14600,0.47588358674111486,2.3812592912304433,0.9992995761124839,0.031706352011043326,1.8891817679384264e-17
14700,0.4773850228058178,2.380514843133427,0.9993493883571248,0.03246363124481699,1.900585462090541e-17
14800,0.4788766417303783,2.379771414563473,0.9993956190654811,0.03323470222808633,1.911975734179811e-17
14900,0.4803585775831514,2.3790290064834596,0.999438527768613,0.03401970602553428,1.923352887536272e-17
15000,0.4818309625273064,2.3782876198023706,0.9994783551455014,0.03481878270101524,1.9347172178212312e-17
15100,0.483293926850262,2.377547255375701,0.999515324384153,0.035632071262071574,1.9460690133095406e-17
15200,0.4847475989925751,2.3768079140058602,0.9995496424463391,0.03645970960448375,1.9574085551573265e-17
15300,0.4861921055762829,2.3760695964425795,0.9995815012425084,0.037301834456890726,1.9687361176561e-17
15400,0.4876275714327262,2.37533230338332,0.9996110787230029,0.03815858132550298,1.980051968474103e-17
15500,0.48905411962985146,2.374596035473683,0.9996385398913229,0.03903008443895151,1.9913563688856906e-17
15600,0.4904718714990115,2.3738607933078204,0.9996640377448226,0.03991647669329823,2.0026495739894813e-17
15700,0.4918809466612738,2.373126577428848,0.9996877141478699,0.040817889597243084,2.0139318329159635e-17
15800,0.493281463053246,2.372393388329259,0.999709700642179,0.0417344532175532,2.0252033890251922e-17
15900,0.4946735369524302,2.37166122645134,0.9997301191987149,0.042666296124758585,2.0364644800951672e-17
16000,0.49605728300211765,2.370930092187585,0.999749082915278,0.04361354533913164,2.047715338501442e-17
16100,0.497432814235826,2.370199985881115,0.9997666966636038,0.04457632627699348,2.0589561913884804e-17
16200,0.49880024210130625,2.3694709078260936,0.9997830576895541,0.045554762697370355,2.0701872608332282e-17
16300,0.5001596764841065,2.368742858268147,0.9997982561697337,0.046548976649037455,2.0814087640013575e-17
16400,0.5015112257307226,2.3680158374047826,0.999812375727643,0.04755908841797407,2.092620913296589e-17
16500,0.5028549966713258,2.36728984538581,0.999825493912257,0.048585216475268256,2.1038239165034866e-17
16600,0.5041910946420963,2.3665648823137615,0.9998376826417295,0.04962747742549445,2.1150179769240825e-17
16700,0.5055196235071514,2.365840948244313,0.9998490086147287,0.05068598595559648,2.126203293508675e-17
16800,0.5068406856800929,2.3651180431867043,0.9998595336917377,0.051760854784309474,2.1373800609811167e-17
16900,0.5081543821451706,2.3643961671041644,0.9998693152484912,0.052852194612139636,2.1485484699588863e-17
17000,0.5094608124780776,2.3636753199143308,0.9998784065035635,0.05396011407194179,2.159708707068227e-17
17100,0.5107600748663809,2.3629555014896724,0.9998868568219856,0.05508471968011608,2.1708609550546102e-17
17200,0.5120522661295951,2.3622367116579133,0.9998947119966312,0.056226115788451936,2.1820053928887697e-17
17300,0.5133374817389088,2.3615189502024547,0.9999020145089904,0.057384404536649614,2.1931421958685372e-17
17400,0.5146158158365715,2.360802216862798,0.9999088037708347,0.058559685805543715,2.2042715357166932e-17
17500,0.5158873612549423,2.360086511334967,0.9999151163481657,0.05975205717105625,2.2153935806750394e-17
17600,0.5171522095352167,2.359371833271932,0.9999209861687449,0.06096161385890242,2.2265084955948796e-17
17700,0.5184104509458277,2.35865818228403,0.9999264447144045,0.06218844870007745,2.2376164420240908e-17
17800,0.5196621745005379,2.3579455579393893,0.9999315211992542,0.06343265208714877,2.2487175782909547e-17
17900,0.5209074679762219,2.3572339597643515,0.9999362427348181,0.06469431193137298,2.2598120595849062e-17
18000,0.5221464179303479,2.3565233872438918,0.9999406344830606,0.06597351362066828,2.270900038034349e-17
18100,0.5233791097181644,2.355813839822041,0.9999447197981902,0.06727033997845955,2.281981662781683e-17
18200,0.5246056275095984,2.355105316902309,0.9999485203580669,0.06858487122341772,2.2930570800556723e-17
18300,0.5258260543058726,2.354397817848101,0.9999520562859749,0.06991718493012089,2.304126433241284e-17
18400,0.5270404719558414,2.3536913419831422,0.9999553462634732,0.0712673559906506,2.315189862947112e-17
