Timestep (s),Sum Voltage (V),Carry Out Voltage (V),Sum Error Rate (Dimless),Carry Out Error Rate (Dimless),Energy Dissipation (J)
0,0.00691646174141851,2.49914987501835,0.00029331658409115224,1.0,2.296690982994416e-19
100,0.013731104162184659,2.4982999787271005,0.00041686511278937743,1.0,4.547254630363839e-19
200,0.020445885945621405,2.497450317999623,0.0005844024430057271,1.0,6.753427560351354e-19
300,0.02706278584469641,2.4966008997664595,0.0008085397631122371,1.0,8.916875606927426e-19
400,0.03358373190845725,2.495751731005676,0.001104513381111838,1.0,1.1039197099471467e-18
500,0.040010602957124455,2.4949028187335367,0.001490460622336931,1.0,1.312192581901159e-18
600,0.0463452300218667,2.494054169995503,0.0019876609310632842,1.0,1.5166533812589417e-18
700,0.052589397747857584,2.4932057918575343,0.002620726329977341,1.0,1.7174434075528416e-18
800,0.058744845759394045,2.4923576913976944,0.0034177254868632545,1.0,1.914698310970338e-18
900,0.06481326998656027,2.4915098756980405,0.004410226624078306,1.0,2.1085483365094304e-18
1000,0.0707963239532334,2.4906623518367974,0.005633246399909808,1.0,2.2991185570988383e-18
1100,0.0766956200266679,2.489815126880801,0.007125094644714891,1.0,2.4865290962641415e-18
1200,0.08251273062885695,2.4889682078782074,0.008927108339296996,1.0,2.6708953408426632e-18
1300,0.08824918941032076,2.4881216018514563,0.0110832723135601,1.0,2.8523281442382145e-18
1400,0.09390649238695885,2.4872753157904812,0.013639728611209656,1.0,3.0309340206542025e-18
1500,0.09948609904074315,2.486429356646163,0.01664418107368293,1.0,3.206815330720337e-18
1600,0.10498943338503443,2.4855837313240126,0.020145206194243093,1.0,3.3800704588921797e-18
1700,0.11041788499547664,2.4847384466780813,0.024191485438140203,1.0,3.5507939830046885e-18
1800,0.11577319934141918,2.4838935095050894,0.02883134027587342,1.0,3.719076627107623e-18
1900,0.12105656351699183,2.4830489265387663,0.034111157684790894,1.0,3.8850058500521904e-18
2000,0.1262699799606003,2.4822047044443987,0.04007583500846523,1.0,4.0486653350984775e-18
2100,0.1314148104776584,2.481360849813574,0.04676656429869486,1.0,4.2101358900684255e-18
2200,0.13649238802469657,2.4805173691591214,0.05422049415340846,1.0,4.369495253820859e-18
2300,0.14150401746006103,2.479674268910236,0.06246995384639553,1.0,4.5268182255005545e-18
2400,0.14645097627247797,2.4788315554077887,0.07154175187603373,1.0,4.6821767880415474e-18
2500,0.1513345152879829,2.47798923489981,0.08145656724187711,1.0,4.835640226195016e-18
2600,0.15615585935583903,2.477147313537144,0.09222844863372104,1.0,4.987275239320932e-18
2700,0.16091620801397424,2.47630579736927,0.10386443316347627,1.0,5.137146049172872e-18
2800,0.16561673613450748,2.475464692340284,0.11636429245758284,1.0,5.285314502895945e-18
2900,0.17025859455002298,2.474624004285033,0.12972041002673962,1.0,5.4318401714621175e-18
3000,0.17484291066108126,2.473783738925406,0.14391778999954052,1.0,5.57678044374156e-18
3100,0.1793707890255739,2.472943901866764,0.1589341936914349,1.0,5.720190616402136e-18
3200,0.18384331193048936,2.4721044985945193,0.17474039719978407,1.0,5.8621239798267994e-18
3300,0.18826153994663883,2.4712655344708474,0.1913005603648339,1.0,6.002631900241348e-18
3400,0.19262651246686582,2.4704270147315333,0.20857269508236131,1.0,6.141763898206649e-18
3500,0.1969392482282935,2.469588944482947,0.2265092191369058,1.0,6.279567723650462e-18
3600,0.20120074581911152,2.468751328699145,0.24505758045844195,1.0,6.4160894275954455e-18
3700,0.20541198417041223,2.467914172219094,0.26416093598139345,1.0,6.551373430730782e-18
3800,0.20957392303356662,2.4670774797440096,0.2837588690736047,1.0,6.685462588981299e-18
3900,0.2136875034436164,2.4662412558348117,0.3037881297591448,1.0,6.818398256195994e-18
4000,0.21775364816914283,2.4654055049096897,0.32418338262534785,1.0,6.95022034410003e-18
4100,0.2217732621490593,2.4645702312417734,0.34487794831606466,1.0,7.08096737963884e-18
4200,0.22574723291677795,2.463735438956912,0.3658045258002205,1.0,7.210676559816432e-18
4300,0.22967643101214094,2.462901132031549,0.38689588409698794,1.0,7.339383804166052e-18
4400,0.23356171038156398,2.4620673142906973,0.40808551376802193,1.0,7.467123804938473e-18
4500,0.23740390876675024,2.4612339894060105,0.4293082301893407,1.0,7.593930075134337e-18
4600,0.24120384808237738,2.4604011608939413,0.4505007223326224,1.0,7.719834994468938e-18
4700,0.24496233478311705,2.4595688321139937,0.47160204246774473,1.0,7.844869853362083e-18
4800,0.24868016022034786,2.4587370062670586,0.49255403380293283,1.0,7.969064895050332e-18
4900,0.25235810098890005,2.4579056863938336,0.5133016945719393,1.0,8.092449355901566e-18
5000,0.2559969192641671,2.457074875373323,0.5337934784337726,1.0,8.21505150402247e-18
5100,0.2595973631299041,2.4562445759214184,0.5539815322516515,1.0,8.336898676228387e-18
5200,0.2631601668970152,2.4554147905895523,0.5738218733536039,1.0,8.458017313458616e-18
5300,0.26668605141364143,2.4545855217634265,0.5932745092433948,1.0,8.578432994696573e-18
5400,0.27017572436682064,2.4537567716618134,0.6123035034282285,1.0,8.698170469481816e-18
5500,0.27362988057600646,2.4529285423354237,0.6308769915653687,1.0,8.817253689056123e-18
5600,0.27704920227871094,2.4521008356658434,0.6489671525124945,1.0,8.935705836222011e-18
5700,0.28043435940852546,2.451273653364533,0.6665501391087847,1.0,9.053549353967265e-18
5800,0.2837860098657724,2.450446996971892,0.6836059736295266,1.0,9.170805972909422e-18
5900,0.28710479978102416,2.4496208678563827,0.7001184128616627,1.0,9.2874967376148e-18
6000,0.29039136377171865,2.4487952672137134,0.7160747876570335,1.0,9.403642031843454e-18
6100,0.293646325192097,2.4479701960660782,0.7314658216498857,1.0,9.519261602769191e-18
6200,0.2968702963766773,2.447145655261453,0.7462854335906757,1.0,9.634374584217711e-18
6300,0.30006387887746805,2.4463216454729437,0.7605305274638052,1.0,9.748999518973634e-18
6400,0.3032276636951216,2.4454981671981866,0.7742007742360133,1.0,9.863154380186661e-18
6500,0.3063622315042221,2.444675220758799,0.7872983887367463,1.0,9.976856591932058e-18
6600,0.30946815287288765,2.4438528062998794,0.7998279048125803,1.0,1.0090123048945481e-17
6700,0.3125459884768728,2.4430309237895522,0.8117959515341032,1.0,1.0202970135586885e-17
6800,0.31559628930833383,2.44220957301856,0.8232110328732004,1.0,1.0315413744056254e-17
6900,0.3186195968794287,2.441388753599899,0.8340833129182059,1.0,1.0427469291897915e-17
7000,0.3216164434209119,2.440568464968497,0.8444244083588615,1.0,1.0539151738819732e-17
7100,0.32458735207587547,2.439748706380933,0.8542471896566056,1.0,1.0650475602868509e-17
7200,0.3275328370887849,2.438929476915197,0.8635655920213502,1.0,1.076145497598163e-17
7300,0.3304534039899558,2.4381107754704856,0.872394437045557,1.0,1.0872103538937278e-17
7400,0.3333495497756073,2.43729260076704,0.8807492656012564,1.0,1.0982434575746716e-17
7500,0.33622176308362617,2.436474951346015,0.888646182386155,1.0,1.1092460987495377e-17
7600,0.3390705243651708,2.4356578255693866,0.8961017123109678,1.0,1.120219530566674e-17
7700,0.3418963060522388,2.4348412216198914,0.9031326687509961,1.0,1.131164970496515e-17
7800,0.344699572721318,2.434025137500999,0.9097560335397286,1.0,1.1420836015669316e-17
7900,0.34748078125323684,2.433209571036917,0.9159888484595776,1.0,1.152976573552473e-17
8000,0.35024038098932425,2.4323945198726253,0.9218481178832668,1.0,1.1638450041201934e-17
8100,0.3529788138839895,2.4315799814739414,0.9273507221372164,1.0,1.1746899799340798e-17
8200,0.35569651465382424,2.4307659531276125,0.9325133410937765,1.0,1.1855125577193654e-17
8300,0.358393910923326,2.4299524319414365,0.937352387450603,1.0,1.196313765288617e-17
8400,0.36107142336734394,2.42913941484441,0.9418839491210972,1.0,1.2070946025317511e-17
8500,0.36372946585033544,2.428326898586902,0.9461237401379169,1.0,1.2178560423706717e-17
8600,0.3663684455625293,2.42751487974085,0.9500870594605211,1.0,1.2285990316810308e-17
8700,0.36898876315307866,2.4267033546999857,0.9537887570759368,1.0,1.2393244921812551e-17
8800,0.37159081286029083,2.4258923196800786,0.9572432067880497,1.0,1.25003332129215e-17
8900,0.3741749826390151,2.425081770719206,0.9604642851033494,1.0,1.2607263929659527e-17
9000,0.3767416542852664,2.4242717036780412,0.9634653556390159,1.0,1.2714045584885631e-17
9100,0.3792912035581627,2.423462114240168,0.9662592585014318,1.0,1.282068647254679e-17
9200,0.3818240002992492,2.4226529979124107,0.9688583041086402,1.0,1.2927194675166685e-17
9300,0.38434040854928064,2.421844350025185,0.9712742709581197,1.0,1.3033578071105547e-17
9400,0.38684078666253185,2.4210361657328705,0.9735184068707273,1.0,1.313984434157271e-17
9500,0.389325487418701,2.4202284400141987,0.9756014332721332,1.0,1.3246000977418961e-17
9600,0.39179485813247394,2.4194211676726605,0.9775335521039904,1.0,1.3352055285726186e-17
9700,0.3942492407608083,2.41861434333693,0.9793244549879512,1.0,1.3458014396182426e-17
9800,0.39668897200800096,2.4178079614613046,0.9809833342961116,1.0,1.3563885267266811e-17
9900,0.3991143834285966,2.4170020163261636,0.9825188958111561,1.0,1.3669654457310276e-17
10000,0.40152580152857786,2.4161965020384395,0.9839393726884563,1.0,1.3775307372797176e-17
10100,0.4039235478645583,2.415391412532106,0.9852525404593665,1.0,1.3880850646216535e-17
10200,0.4063079391405868,2.414586741568679,0.9864657328412736,1.0,1.398629073625564e-17
10300,0.40867928730300895,2.4137824827377337,0.9875858581451851,1.0,1.409163393391614e-17
10400,0.41103789963343446,2.4129786294574354,0.9886194160946289,1.0,1.419688636839817e-17
10500,0.41338407883986056,2.4121751749750797,0.9895725148913327,1.0,1.4302054012746296e-17
10600,0.41571812314599693,2.411372112367651,0.9904508883833193,1.0,1.4407142689286006e-17
10700,0.4180403263788388,2.4105694345423867,0.9912599132096791,1.0,1.451215807484494e-17
10800,0.4203509780545331,2.409767134237362,0.992004625813401,1.0,1.4617105705787696e-17
10900,0.42265036346258,2.408965204022077,0.9926897392293035,1.0,1.472199098286477e-17
11000,0.42493876374841105,2.4081636362980605,0.9933196595683601,1.0,1.482681917587856e-17
11100,0.42721645599438657,2.407362423299485,0.9938985021326313,1.0,1.4931595428192047e-17
11200,0.42948371329924934,2.4065615570937875,0.9944301071066538,1.0,1.503632476107145e-17
11300,0.4317408048560753,2.405761029582306,0.9949180547815913,1.0,1.51410120778845e-17
11400,0.4339879960287567,2.404960832500922,0.9953656802777744,1.0,1.5245661190249114e-17
11500,0.4362255509402656,2.4041609574207135,0.9957760881816473,1.0,1.5350269546553452e-17
11600,0.43845374824506017,2.403361395748618,0.9961521685574947,1.0,1.5454841660672924e-17
11700,0.4406728623080706,2.402562138728104,0.996496606063325,1.0,1.5559381944925923e-17
11800,0.44288316328241234,2.401763177439851,0.9968118927154745,1.0,1.5663894713679076e-17
11900,0.44508491718574494,2.4009645028024376,0.9971003400500088,1.0,1.576838418683215e-17
12000,0.4472783859753127,2.4001661055730374,0.9973640906872544,1.0,1.5872854493211858e-17
12100,0.4494638276217006,2.3993679763481266,0.9976051293090513,1.0,1.5977309673842994e-17
12200,0.4516414961813428,2.3985701055641924,0.9978252930610262,1.0,1.6081753685130556e-17
12300,0.45381164186781575,2.397772483498456,0.9980262813943988,1.0,1.6186190401948192e-17
12400,0.4559745111219489,2.3969751002695983,0.9982096653636184,1.0,1.6290623620632676e-17
12500,0.45813034668078567,2.396177945838494,0.998376896397514,1.0,1.6395057061900594e-17
12600,0.4602793876454253,2.395381010008953,0.9985293145627055,1.0,1.64994943736717e-17
12700,0.4624218695477767,2.3945842824284695,0.9986681563387774,1.0,1.660393913382337e-17
12800,0.4645580244162534,2.393787752588974,0.9987945619252213,1.0,1.6708394852866342e-17
12900,0.46668808084043895,2.392991409827596,0.9989095821004345,1.0,1.681286497655118e-17
13000,0.46881226403475196,2.392195243327432,0.9990141846531503,1.0,1.6917352888405242e-17
13100,0.4709307959011369,2.3913992421183163,0.9991092604066055,1.0,1.7021861912205085e-17
13200,0.4730438950908103,2.3906033950776022,0.9991956288555375,1.0,1.7126395314387904e-17
13300,0.4751517770650865,2.3898076909309465,0.9992740434357831,1.0,1.7230956306403356e-17
13400,0.4772546541553113,2.3890121182531003,0.9993451964458313,1.0,1.7335548047009706e-17
13500,0.47935273562192815,2.3882166654687063,0.9994097236391869,1.0,1.7440173644512536e-17
13600,0.48144622771270107,2.3874213208531,0.999468208505844,1.0,1.754483615896568e-17
13700,0.4835353337201222,2.3866260725331174,0.9995211862605686,1.0,1.7649538604299632e-17
13800,0.4856202540380243,2.3858309084879084,0.9995691475550482,1.0,1.775428395043418e-17
13900,0.48770118621742486,2.385035816549754,0.9996125419302975,1.0,1.785907512532198e-17
14000,0.4897783250216248,2.38424078440489,0.9996517810250367,1.0,1.796391501696298e-17
14100,0.4918518624805844,2.383445799594336,0.9996872415550623,1.0,1.806880647537803e-17
14200,0.493921987944599,2.3826508495147274,0.9997192680779419,1.0,1.8173752314545134e-17
14300,0.49598888813729886,2.381855921419154,0.999748175556675,1.0,1.827875531430014e-17
14400,0.49805274720799303,2.3810610024180043,0.999774251735282,1.0,1.8383818222202207e-17
14500,0.5001137467833809,2.3802660794798123,0.9997977593386169,1.0,1.848894375537393e-17
14600,0.5021720660186526,2.379471139432111,0.9998189381080408,1.0,1.8594134602310044e-17
14700,0.5042278816479993,2.3786761689622895,0.9998380066839636,1.0,1.869939342465769e-17
14800,0.5062813680345556,2.377881154618456,0.9998551643456413,1.0,1.8804722858967407e-17
14900,0.5083326972197948,2.377086082810304,0.9998705926180206,1.0,1.8910125518434867e-17
15000,0.5103820389723979,2.3762909398099845,0.9998844567548515,1.0,1.9015603994607483e-17
15100,0.5124295608366164,2.3754957117529805,0.9998969071067373,1.0,1.9121160859075554e-17
15200,0.514475428180152,2.3747003846389907,0.9999080803822628,1.0,1.9226798665142818e-17
15300,0.5165198042415705,2.3739049443328124,0.9999181008098411,1.0,1.9332519949489634e-17
15400,0.5185628501772733,2.3731093765652327,0.9999270812074381,1.0,1.94383272338153e-17
15500,0.5206047251080455,2.3723136669339224,0.9999351239668756,1.0,1.9544223026461012e-17
15600,0.5226455861652006,2.3715178009043347,0.9999423219589854,1.0,1.9650209824037597e-17
15700,0.5246855885363444,2.3707217638106095,0.9999487593654706,1.0,1.9756290113031934e-17
15800,0.5267248855107755,2.3699255408564808,0.9999545124429454,1.0,1.986246637140749e-17
15900,0.5287636285245451,2.3691291171161892,0.9999596502242568,1.0,1.996874107020471e-17
16000,0.5308019672051965,2.368332477535399,0.9999642351618434,1.0,2.0075116675130625e-17
16100,0.5328400494162027,2.3675356069321194,0.9999683237175625,1.0,2.0181595648151368e-17
16200,0.5348780213011254,2.3667384899976325,0.9999719669031077,1.0,2.0288180449082585e-17
16300,0.5369160273275148,2.365941111297421,0.9999752107748517,1.0,2.0394873537178477e-17
16400,0.5389542103305702,2.3651434552721047,0.9999780968866758,1.0,2.050167737272973e-17
16500,0.5409927115565856,2.364345506238381,0.9999806627040962,1.0,2.060859441866014e-17
16600,0.5430316707061968,2.3635472483899687,0.9999829419827564,1.0,2.071562714213776e-17
16700,0.5450712259774562,2.3627486657985557,0.9999849651141324,1.0,2.0822778016184688e-17
16800,0.5471115141087528,2.3619497424147546,0.9999867594410903,1.0,2.0930049521310426e-17
16900,0.549152670421603,2.361150462069059,0.999988349545797,1.0,2.103744414714998e-17
17000,0.5511948288633309,2.360350808472807,0.9999897575118333,1.0,2.1144964394117384e-17
17100,0.5532381220496633,2.359550765219149,0.9999910031638409,1.0,2.1252612775079447e-17
17200,0.5552826813072599,2.3587503157840195,0.9999921042845679,1.0,2.13603918170503e-17
17300,0.5573286367162039,2.357949443527114,0.9999930768131672,1.0,2.1468304062908868e-17
17400,0.559376117152475,2.3571481316928717,0.999993935025155,1.0,2.1576352073131215e-17
17500,0.561425250330429,2.3563463634114594,0.9999946916959634,1.0,2.1684538427565124e-17
17600,0.5634761628453087,2.355544121699766,0.9999953582494298,1.0,2.179286572722296e-17
17700,0.5655289802158102,2.3547413894623954,0.999995944892515,1.0,2.190133659611405e-17
17800,0.5675838269267308,2.3539381494926706,0.9999964607374394,1.0,2.2009953683111327e-17
17900,0.5696408264717225,2.353134384473637,0.9999969139123314,1.0,2.211871966386016e-17
18000,0.5717001013961795,2.3523300769790754,0.9999973116613937,1.0,2.222763724271957e-17
18100,0.5737617733402843,2.3515252094745147,0.9999976604355141,1.0,2.2336709154760818e-17
18200,0.5758259630822418,2.350719764318256,0.9999979659741685,1.0,2.2445938167819466e-17
18300,0.5778927905817269,2.349913723762397,0.9999982333793958,1.0,2.2555327084584963e-17
18400,0.5799623750235776,2.3491070699538623,0.9999984671825612,1.0,2.2664878744764652e-17
18500,0.5820348348617583,2.3482997849354397,0.9999986714045611,1.0,2.2774596027305435e-17
18600,0.5841102878636272,2.3474918506468216,0.9999988496100707,1.0,2.2884481852689734e-17
18700,0.5861888511545356,2.3466832489256513,0.9999990049563845,1.0,2.299453918529747e-17
18800,0.5882706412627918,2.3458739615085737,0.9999991402373514,1.0,2.310477103585834e-17
18900,0.5903557741650205,2.3450639700322924,0.9999992579228626,1.0,2.3215180463988183e-17
19000,0.5924443653319497,2.3442532560346314,0.9999993601943145,1.0,2.332577058082203e-17
19100,0.59453652977466,2.343441800955602,0.9999994489764263,1.0,2.343643356794336e-17
19200,0.5966323820913285,2.342629586138476,0.9999995259657646,1.0,2.3547165609748604e-17
19300,0.5987320365145021,2.3418165928308623,0.9999995926562895,1.0,2.3657969714894515e-17
19400,0.6008356069589357,2.3410028021857907,0.9999996503622163,1.0,2.3768848906770214e-17
19500,0.6029432070700299,2.3401881952628005,0.9999997002384522,1.0,2.3879806226230675e-17
19600,0.6050549502729067,2.3393727530290342,0.9999997432988504,1.0,2.399084473446199e-17
19700,0.6071709498221566,2.338556456360336,0.999999780432499,1.0,2.4101967515947612e-17
19800,0.609291318852298,2.3377392860423574,0.9999998124182404,1.0,2.4213177681598342e-17
19900,0.6114161704289847,2.336921222771668,0.9999998399376029,1.0,2.4324478372054495e-17
20000,0.6135456176010001,2.3361022471568704,0.9999998635863053,1.0,2.443587276120108e-17
20100,0.6156797734530807,2.3352823397197207,0.9999998838844828,1.0,2.4547364059954127e-17
20200,0.6178187511596046,2.3344614808962567,0.9999999012857643,1.0,2.4658955520368253e-17
20300,0.6199626640391928,2.33363965103793,0.9999999161853262,1.0,2.4770650440161992e-17
20400,0.622111625610265,2.332816830412743,0.9999999289270254,1.0,2.488245216776585e-17
20500,0.6242657496476017,2.3319929992063924,0.9999999398097144,1.0,2.499436410805315e-17
20600,0.6264251502399684,2.3311681375234197,0.9999999490928231,1.0,2.510638972899308e-17
20700,0.6285899418488702,2.330342225388364,0.9999999570012892,1.0,2.5218532569517676e-17
20800,0.6307602393685262,2.3295152427469232,0.9999999637299062,1.0,2.533074988800238e-17
20900,0.6329361581871785,2.3286871694671194,0.9999999694471559,1.0,2.544301879758583e-17
21000,0.6351178157214756,2.3278579853404704,0.9999999742985828,1.0,2.5555343192062788e-17
21100,0.6373053307906604,2.3270276700831665,0.999999978409756,1.0,2.5667727483645113e-17
21200,0.6394988228309311,2.3261962033372536,0.9999999818888693,1.0,2.5780176226931916e-17
21300,0.641698411967253,2.325363564671821,0.9999999848290261,1.0,2.589269416371328e-17
21400,0.6439042190891582,2.3245297335841952,0.9999999873102381,1.0,2.600528629296399e-17
21500,0.6461163659326999,2.323694689501139,0.9999999894011755,1.0,2.611795798761131e-17
21600,0.6483349751727263,2.3228584117800564,0.9999999911606954,1.0,2.6230715205044003e-17
21700,0.6505601705340387,2.322020879710203,0.9999999926391746,1.0,2.6343449039212652e-17
21800,0.6527918553508897,2.321182072513903,0.9999999938795611,1.0,2.6456092092709044e-17
21900,0.6550297939144152,2.3203419693477696,0.9999999949185107,1.0,2.6568650315385193e-17
