Timestep (s),Sum Voltage (V),Carry Out Voltage (V),Sum Error Rate (Dimless),Carry Out Error Rate (Dimless),Energy Dissipation (J)
0,0.00691646174141851,2.4992389197944753,0.00029331658409115224,1.0,2.5960042290960587e-19
100,0.0137292856128665,2.4984785177623805,0.00041682649656726856,1.0,5.116566714037593e-19
200,0.02044205411431848,2.4977187979708444,0.0005842911995410649,1.0,7.565306512639123e-19
300,0.02705604068122551,2.4969597644979102,0.0008082756042597783,1.0,9.945694660013065e-19
400,0.033573244738345234,2.496201421422418,0.0011039664619640899,1.0,1.2261037257255143e-18
500,0.0399956139682559,2.495443772814263,0.0014894325694880806,1.0,1.4514493460270736e-18
600,0.04632504599131241,2.494686822725017,0.0019858620329847865,1.0,1.6709072215048465e-18
700,0.0525633899810725,2.4939305751789025,0.0026177490581758,1.0,1.884763880088246e-18
800,0.058712448216780136,2.493175034164112,0.0034130148188263876,1.0,2.0932919672045495e-18
900,0.06477397757567181,2.4924202036244605,0.0044030479733877526,1.0,2.2967507491610874e-18
1000,0.07074969096795135,2.4916660874513625,0.0056226523036185805,1.0,2.4953866294909378e-18
1100,0.07664125871680988,2.4909126894761235,0.007109891687425707,1.0,2.689433672611293e-18
1200,0.0824503098861416,2.4901600134625363,0.008905826079979806,1.0,2.879114129720507e-18
1300,0.08817843355809532,2.489408063099775,0.011054136197761855,1.0,3.064638962574328e-18
1400,0.0938271800627421,2.4886568419955726,0.013600638973982337,1.0,3.2462083613428083e-18
1500,0.09939806216193528,2.4879063536696817,0.01659270034831173,1.0,3.4240122534517982e-18
1600,0.10489255618933643,2.4871566015476,0.02007855632702782,1.0,3.598230800820637e-18
1700,0.1103121031485214,2.4864075889545583,0.02410655726662625,1.0,3.769034883462018e-18
1800,0.11565810977094372,2.4856593191097627,0.02872435378279936,1.0,3.936586567873938e-18
1900,0.12093194953549602,2.484911795120878,0.03397804539214999,1.0,4.101039559014834e-18
2000,0.12613496365122856,2.4841650199787515,0.039911314826993505,1.0,4.262539635057587e-18
2100,0.1312684620048753,2.483418996552363,0.04656457184820184,1.0,4.4212250644014604e-18
2200,0.13633372407458583,2.4826737275839976,0.05397413029502052,1.0,4.577227004656489e-18
2300,0.1413319998112896,2.481929215684631,0.06217144108586814,1.0,4.730669883552593e-18
2400,0.14626451048904393,2.481185463329526,0.07118240199872294,1.0,4.881671761902136e-18
2500,0.15113244952564214,2.4804424728540235,0.08102676243228335,1.0,5.030344678847146e-18
2600,0.15593698327467773,2.4797002464495335,0.09171763812801303,1.0,5.176794979809207e-18
2700,0.160679251790268,2.478958786159706,0.10326114718626378,1.0,5.321123627568828e-18
2800,0.16536036956548625,2.478218093876791,0.11565617481247426,1.0,5.463426497025772e-18
2900,0.16998142624561577,2.477478171338165,0.12889427025714295,1.0,5.603794654208054e-18
3000,0.17454348731718736,2.476739020123034,0.14295967552856947,1.0,5.7423146201647956e-18
3100,0.17904759477379736,2.4760006416492937,0.15782948180683276,1.0,5.879068620356231e-18
3200,0.18349476775961118,2.4752630371705497,0.17347390619257452,1.0,6.014134820199785e-18
3300,0.18788600319142415,2.474526207773291,0.18985667858057265,1.0,6.147587547424348e-18
3400,0.1922222763601212,2.4737901543742087,0.2069355261224638,1.0,6.2794975018747026e-18
3500,0.19650454151235397,2.473054877717657,0.22466274097370553,1.0,6.409931953402406e-18
3600,0.20073373241316206,2.4723203783732526,0.24298581581824075,1.0,6.5389549284559974e-18
3700,0.20491076289031215,2.4715866567336042,0.2618481310188052,1.0,6.666627385992143e-18
3800,0.2090365273610361,2.470853713012172,0.2811896771175203,1.0,6.7930073832775915e-18
3900,0.213111901341818,2.470121547241249,0.3009477967619788,1.0,6.918150232141143e-18
4000,0.21713774194191493,2.469390159270062,0.32105793089539225,1.0,7.042108646228001e-18
4100,0.22111488834118317,2.4686595487629868,0.3414543551555119,1.0,7.164932879754896e-18
4200,0.22504416225281743,2.467929715197877,0.3620708938043026,1.0,7.2866708582662e-18
4300,0.22892636837155095,2.4672006578644963,0.38284160008463153,1.0,7.407368301859285e-18
4400,0.23276229480787555,2.4664723758630545,0.40370139360079205,1.0,7.527068841314414e-18
4500,0.23655271350877075,2.4657448681028464,0.42458664708139515,1.0,7.645814127554381e-18
4600,0.24029838066544928,2.4650181333009833,0.4454357166463325,1.0,7.763643934827615e-18
4700,0.24400003710859422,2.4642921699812184,0.46618941141382264,1.0,7.880596257987351e-18
4800,0.24765840869152736,2.4635669764728627,0.4867913999062089,1.0,7.99670740423209e-18
4900,0.25127420666175665,2.4628425509097864,0.5071885522113245,1.0,8.112012079621907e-18
5000,0.2548481280213137,2.4621188912295024,0.5273312182046678,1.0,8.226543470699287e-18
5100,0.2583808558762789,2.4613959951723325,0.5471734433201982,1.0,8.34033332150532e-18
5200,0.26187305977587105,2.460673860280649,0.5666731243651012,1.0,8.453412006261214e-18
5300,0.2653253960414873,2.459952483898191,0.5857921087041063,1.0,8.565808597990859e-18
5400,0.26873850808602945,2.459231863169456,0.6044962407945127,1.0,8.677550933311456e-18
5500,0.27211302672385834,2.4585119950391547,0.6227553605423215,1.0,8.788665673637567e-18
5600,0.2754495704717069,2.4577928762517396,0.6405432582836139,1.0,8.89917836300794e-18
5700,0.2787487458408581,2.4570745033509933,0.6578375913874717,1.0,9.009113482729503e-18
5800,0.28201114762088736,2.4563568726796805,0.6746197675430307,1.0,9.118494503046837e-18
5900,0.28523735915526577,2.455639980379261,0.6908747997502203,1.0,9.22734393199541e-18
6000,0.28842795260908566,2.4549238223896594,0.7065911378979894,1.0,9.335683361618e-18
6100,0.29158348922918825,2.4542083944490907,0.7217604816024485,1.0,9.443533511698794e-18
6200,0.29470451959694266,2.4534936920939394,0.7363775787056814,1.0,9.550914271155915e-18
6300,0.29779158387392274,2.452779710658691,0.7504400135192945,1.0,9.657844737239838e-18
6400,0.3008452120407156,2.4520664452759138,0.7639479885484397,1.0,9.764343252656733e-18
6500,0.303865924129093,2.4513538908762866,0.7769041030643054,1.0,9.870427440741671e-18
6600,0.3068542304477642,2.450642042188676,0.7893131315164634,1.0,9.976114238803774e-18
6700,0.30981063180191476,2.449930893740255,0.8011818044000969,1.0,1.008141992972762e-17
6800,0.31273561970674085,2.4492204398566684,0.812518593824699,1.0,1.0186360171960177e-17
6900,0.31562967659516683,2.448510674662236,0.8233335056762454,1.0,1.029095002794969e-17
7000,0.3184932760199434,2.4478015920801983,0.833637879929166,1.0,1.0395203991140632e-17
7100,0.3213268828502942,2.447093185832999,0.8434442003509508,1.0,1.0499136011605259e-17
7200,0.32413095346329596,2.4463854494426074,0.8527659145537482,1.0,1.0602759520380044e-17
7300,0.3269059359301524,2.4456783762308727,0.8616172650850314,1.0,1.0706087452592966e-17
7400,0.3296522701975272,2.4449719593199166,0.8700131320142983,1.0,1.0809132269437521e-17
7500,0.3323703882640899,2.4442661916325568,0.8779688872646886,1.0,1.0911905979066773e-17
7600,0.3350607143524233,2.4435610658927627,0.8855002607568379,1.0,1.1014420156462787e-17
7700,0.33772366507644225,2.442856574626144,0.8926232182763281,1.0,1.1116685962337896e-17
7800,0.34035964960445153,2.4421527101604665,0.8993538508442005,1.0,1.1218714161123174e-17
7900,0.34296906981799435,2.441449464626199,0.9057082752608729,1.0,1.1320515138097779e-17
8000,0.3455523204666074,2.440746829957085,0.9117025454053249,1.0,1.1422098915691915e-17
8100,0.34810978931860526,2.440044797890746,0.9173525738020578,1.0,1.1523475169027039e-17
8200,0.35064185730803066,2.439343359969303,0.9226740629160374,1.0,1.1624653240719684e-17
8300,0.35314889867786925,2.438642507540031,0.9276824455986107,1.0,1.1725642154995212e-17
8400,0.35563128111965203,2.437942231756034,0.932392834083641,1.0,1.1826450631148147e-17
8500,0.35808936590955187,2.43724252357694,0.9368199769208275,1.0,1.19270870963821e-17
8600,0.3605235080410728,2.4365433737696236,0.9409782232308128,1.0,1.2027559698060866e-17
8700,0.362934056354442,2.4358447729089483,0.9448814936726803,1.0,1.2127876315406425e-17
8800,0.36532135366279406,2.4351467113785277,0.948543257527278,1.0,1.2228044570666518e-17
8900,0.36768573687524747,2.434449179371509,0.9519765153182876,1.0,1.23280718397892e-17
9000,0.3700275371169607,2.4337521668913764,0.9551937864158102,1.0,1.2427965262612398e-17
9100,0.37234707984625803,2.4330556637527705,0.9582071010934896,1.0,1.2527731752616888e-17
9200,0.37464468496890707,2.432359659582329,0.9610279965388828,1.0,1.2627378006244079e-17
9300,0.37692066694963555,2.431664143819543,0.9636675163471308,1.0,1.272691051181581e-17
9400,0.37917533492095923,2.430969105717631,0.9661362130592749,1.0,1.282633555806409e-17
9500,0.3814089927894045,2.430274534344428,0.9684441533382593,1.0,1.2925659242303288e-17
9600,0.38362193933919714,2.4295804185832943,0.9706009254072124,1.0,1.3024887478252246e-17
9700,0.3858144683334855,2.428886747134035,0.972615648405659,1.0,1.312402600352958e-17
9800,0.3879868686131746,2.428193508513837,0.9744969833495309,1.0,1.3223080386838707e-17
9900,0.3901394241934326,2.4275006910582206,0.976253145409957,1.0,1.3322056034852852e-17
10000,0.3922724143579381,2.426808282922005,0.9778919172536354,1.0,1.3420958198824179e-17
10100,0.39438611375092714,2.4261162720802854,0.9794206632139935,1.0,1.3519791980921328e-17
10200,0.39648079246710455,2.425424646329427,0.980846344087175,1.0,1.3618562340311639e-17
10300,0.3985567161394778,2.4247333932880686,0.982175532370199,1.0,1.3717274099010107e-17
10400,0.40061414602516654,2.4240425003981407,0.9834144277802461,1.0,1.3815931947488095e-17
10500,0.40265333908925044,2.4233519549258946,0.9845688729140841,1.0,1.391454045007513e-17
10600,0.40467454808669995,2.4226617439629443,0.9856443689250896,1.0,1.4013104050143413e-17
10700,0.40667802164245,2.421971854427319,0.9866460911121847,1.0,1.411162707510138e-17
10800,0.40866400432965994,2.4212822730645285,0.9875789043304272,1.0,1.4210113741197624e-17
10900,0.41063273674621276,2.420592986448636,0.988447378146931,1.0,1.4308568158147366e-17
11000,0.41258445558949874,2.419903980983347,0.9892558016783956,1.0,1.4406994333593518e-17
11100,0.41451939372952884,2.419215242903104,0.9900081980578357,1.0,1.4505396177400306e-17
11200,0.41643778028042466,2.418526758274193,0.9907083384882152,1.0,1.4603777505798032e-17
11300,0.4183398406703234,2.4178385129958615,0.9913597558496787,1.0,1.470214204538444e-17
11400,0.4202257967097421,2.4171504928014436,0.9919657578350336,1.0,1.480049343698556e-17
11500,0.42209586665844334,2.4164626832594966,0.9925294395951297,1.0,1.4898835239385973e-17
11600,0.4239502652908356,2.4157750697749476,0.9930536958819084,1.0,1.499717093293642e-17
11700,0.4257892039599528,2.415087637590246,0.9935412326822113,1.0,1.5095503923043955e-17
11800,0.42761289066004454,2.41440037178653,0.9939945783400338,1.0,1.5193837543551614e-17
11900,0.429421530087815,2.4137132572847975,0.9944160941688348,1.0,1.5292175060008465e-17
12000,0.43121532370234583,2.4130262788470884,0.9948079845588615,1.0,1.5390519672842645e-17
12100,0.43299446978373357,2.412339421077675,0.9951723065872429,1.0,1.5488874520442623e-17
12200,0.43475916349047866,2.411652668424262,0.9955109791409417,1.0,1.558724268214133e-17
12300,0.4365095969156514,2.41096600517919,0.9958257915645525,1.0,1.568562718112767e-17
12400,0.43824595914187303,2.410279415480656,0.9961184118464668,1.0,1.5784030987264023e-17
12500,0.43996843629513444,2.4095928833139344,0.9963903943581159,1.0,1.5882452767465334e-17
12600,0.44167721159748585,2.4089063925126086,0.9966431871616505,1.0,1.5980781271926547e-17
12700,0.44337246541862524,2.4082199267598123,0.9968781389041973,1.0,1.6079019094690898e-17
12800,0.44505437532641196,2.4075334695894774,0.9970965053097929,1.0,1.617717040217809e-17
12900,0.4467231161363664,2.4068470043875885,0.997299455295295,1.0,1.627523925133897e-17
13000,0.4483788599601451,2.406160514393448,0.9974880767179499,1.0,1.6373229595660794e-17
13100,0.4500217762530182,2.405473982700947,0.9976633817771972,1.0,1.647114529088643e-17
13200,0.4516520318603685,2.4047873922598435,0.9978263120856433,1.0,1.656899010047385e-17
13300,0.45326979106324405,2.4041007258770506,0.9979777434260015,1.0,1.6666767700811623e-17
13400,0.4548752156229781,2.40341396621793,0.9981184902101772,1.0,1.6764481686220283e-17
13500,0.45646846482490583,2.402727095807595,0.9982493096562643,1.0,1.6862135573743133e-17
13600,0.45804969552119423,2.4020400970322164,0.9983709056987545,1.0,1.695973280775088e-17
13700,0.4596190621728118,2.401352952140345,0.998483932646752,1.0,1.7057276764377293e-17
13800,0.4611767168906529,2.4006656432442313,0.9985889986044554,1.0,1.7154770755793366e-17
13900,0.4627228094758414,2.3999781523211587,0.9986866686676132,1.0,1.725221803433429e-17
14000,0.4642574874592283,2.3992904612147843,0.9987774679090875,1.0,1.7349621796500915e-17
14100,0.46578089614010826,2.398602551636483,0.998861884166089,1.0,1.744698518683271e-17
14200,0.46729317862416647,2.3979144051667034,0.9989403706410713,1.0,1.7544311301678193e-17
14300,0.46879447586067996,2.3972260032563275,0.9990133483276932,1.0,1.7641603192862884e-17
14400,0.4702849266789857,2.3965373272280406,0.9990812082727013,1.0,1.7738863871261477e-17
14500,0.47176466782423654,2.3958483582777066,0.9991443136840225,1.0,1.7836096310305138e-17
14600,0.47323383399245744,2.395159077475751,0.9992030018948174,1.0,1.7933303449406866e-17
14700,0.47469255786492265,2.394469465768553,0.9992575861927192,1.0,1.803048819733157e-17
14800,0.4761409701418633,2.393779503979841,0.9993083575229689,1.0,1.8127653435509478e-17
14900,0.4775791995755276,2.3930891728120995,0.9993555860736687,1.0,1.822480202131263e-17
15000,0.4790073730026022,2.3923984528479814,0.9993995227509002,1.0,1.8321936791286405e-17
15100,0.4804256153760127,2.391707324551726,0.9994404005509973,1.0,1.8419060564359038e-17
15200,0.48183404979611666,2.391015768270589,0.9994784358368334,1.0,1.851617614503087e-17
15300,0.4832327975413017,2.3903237642362734,0.9995138295245625,1.0,1.8613286326552238e-17
15400,0.4846219780980029,2.389631292566374,0.9995467681868618,1.0,1.871039389409492e-17
15500,0.4860017091901517,2.388938333265824,0.9995774250783459,1.0,1.8807501627933015e-17
15600,0.4873721068080699,2.388244866228352,0.9996059610884649,1.0,1.890461230662957e-17
15700,0.488733285236821,2.3875508712379454,0.999632525626865,1.0,1.9001645955703246e-17
15800,0.4900853570840283,2.3868563279703205,0.9996572574458644,1.0,1.9098546568125692e-17
15900,0.49142843330717517,2.386161215994401,0.9996802854043998,1.0,1.9195316611227394e-17
16000,0.49276262324039616,2.3854655147738026,0.999701729177512,1.0,1.9291958480623753e-17
16100,0.4940880346207711,2.384769203668325,0.9997216999151727,1.0,1.9388474502715277e-17
16200,0.4954047736141331,2.3840722619354513,0.9997403008539969,1.0,1.9484866937090998e-17
16300,0.49671294484039985,2.383374668731857,0.9997576278851551,1.0,1.958113797882308e-17
16400,0.4980126513984396,2.38267640311492,0.9997737700815695,1.0,1.9677289760680908e-17
16500,0.49930399489048133,2.3819774440442463,0.9997888101872735,1.0,1.9773324355250354e-17
16600,0.5005870754460792,2.381277770383194,0.999802825071616,1.0,1.986924377696441e-17
16700,0.5018619917456392,2.380577360900413,0.9998158861508071,1.0,1.9965049984064623e-17
16800,0.5031288410435214,2.3798761942713846,0.9998280597791317,1.0,2.0060744880475605e-17
16900,0.5043877191907206,2.3791742490799743,0.9998394076119955,1.0,2.01563303176116e-17
17000,0.5056387206571397,2.3784715038199855,0.9998499869428159,1.0,2.025180809611436e-17
17100,0.5068819385534609,2.377767936896727,0.9998598510156329,1.0,2.0347179967520174e-17
17200,0.5081174646526262,2.3770635266285822,0.9998690493151806,1.0,2.0442447635870606e-17
17300,0.5093453894109321,2.3763582512485892,0.9998776278360391,1.0,2.0537612759253422e-17
17400,0.5105658019887485,2.375652088906025,0.9998856293323722,1.0,2.0632676951296396e-17
17500,0.5117787902708689,2.374945017667998,0.999893093549649,1.0,2.0727641782594805e-17
17600,0.5129844408865004,2.3742370155210493,0.9999000574396477,1.0,2.082250878209814e-17
17700,0.5141828392288992,2.3735280603727578,0.9999065553599511,1.0,2.09172794384373e-17
17800,0.5153740694746609,2.3728181300533535,0.9999126192590508,1.0,2.1011955201205893e-17
17900,0.5165582146026707,2.3721072023173395,0.9999182788481028,1.0,2.1106537482197573e-17
18000,0.5177353564127215,2.371395254845118,0.9999235617603002,1.0,2.120102765659815e-17
18100,0.5189055755438077,2.370682265244625,0.9999284936987579,1.0,2.1295427064136064e-17
18200,0.520068951492098,2.3699682110529716,0.9999330985737435,1.0,2.1389737010187835e-17
18300,0.5212255626285969,2.369253069738092,0.9999373986300238,1.0,2.1483958766851867e-17
18400,0.5223754862165007,2.3685368187003966,0.9999414145650461,1.0,2.157809357397982e-17
18500,0.523518798428251,2.367819435274436,0.9999451656386157,1.0,2.167214264017502e-17
18600,0.5246555743622967,2.3671008967305656,0.999948669774688,1.0,2.176610714375581e-17
18700,0.5257858880595662,2.3663811802766226,0.9999519436558472,1.0,2.1859988233687947e-17
18800,0.5269098125196567,2.3656602630596058,0.9999550028109998,1.0,2.1953787030480195e-17
18900,0.5280274197167483,2.3649381221673633,0.999957861696777,1.0,2.2047504627054844e-17
19000,0.5291387806152443,2.3642147346302873,0.9999605337731003,1.0,2.214114208958812e-17
19100,0.5302439651851475,2.3634900774230125,0.9999630315733344,1.0,2.2234700458322652e-17
19200,0.5313430424171736,2.3627641274661237,0.9999653667694189,1.0,2.232818074835512e-17
19300,0.5324360803376099,2.3620368616278697,0.9999675502323427,1.0,2.2421583950389357e-17
19400,0.5335231460229228,2.36130825672588,0.999969592088298,1.0,2.2514911031476973e-17
19500,0.5346043056141189,2.3605782895288905,0.9999715017708265,1.0,2.2608162935729444e-17
19600,0.535679624330865,2.3598469367584762,0.9999732880692485,1.0,2.2701340584999893e-17
19700,0.5367491664853722,2.359114175090786,0.9999749591736417,1.0,2.2794444879556705e-17
19800,0.5378129954960453,2.358379981158286,0.999976522716621,1.0,2.2887476698725748e-17
19900,0.5388711739009091,2.357644331551509,0.9999779858121491,1.0,2.2980436901515986e-17
20000,0.5399237633708063,2.3569072028208082,0.9999793550915919,1.0,2.3073326327223126e-17
20100,0.5409708247223802,2.356168571478116,0.9999806367372175,1.0,2.3166145796017217e-17
20200,0.5420124179308399,2.355428413998712,0.9999818365133241,1.0,2.3258896109513465e-17
20300,0.5430486021425162,2.354686706822991,0.9999829597951653,1.0,2.335157805131735e-17
20400,0.5440794356872105,2.35394342635824,0.9999840115958327,1.0,2.3444192387563645e-17
20500,0.54510497609034,2.353198548980421,0.9999849965912423,1.0,2.353673986742952e-17
20600,0.5461252800848839,2.3524520510359554,0.9999859191433598,1.0,2.3629221223640875e-17
20700,0.5471404036231343,2.3517039088435165,0.9999867833217928,1.0,2.3721637172955575e-17
20800,0.548150401888256,2.350954098695826,0.999987592923926,1.0,2.3813988416637213e-17
20900,0.5491553293056569,2.3502025968614544,0.9999883514933434,1.0,2.3906275640911918e-17
21000,0.5501552395541736,2.3494493795866287,0.9999890623374967,1.0,2.3998499517412937e-17
21100,0.5511501855770773,2.348694423097041,0.9999897285438344,1.0,2.4090660703614323e-17
21200,0.5521402195928992,2.3479377035996642,0.9999903529945294,1.0,2.418275984324377e-17
21300,0.5531253931060838,2.347179197284572,0.9999909383806826,1.0,2.4274797566694208e-17
21400,0.5541057569174683,2.3464188803267616,0.9999914872152587,1.0,2.4366774491414075e-17
21500,0.5550813611345959,2.3456567288879815,0.999992001845177,1.0,2.4458691222295173e-17
21600,0.5560522551818613,2.3448927191185645,0.9999924844625641,1.0,2.4550548352039745e-17
21700,0.5570184878104955,2.3441268271592612,0.9999929371152241,1.0,2.46423464615214e-17
21800,0.5579801071083913,2.343359029143081,0.9999933617163854,1.0,2.4734086120138945e-17
21900,0.5589371605097718,2.3425893011971346,0.9999937600537732,1.0,2.482576788615526e-17
