Timestep (s),Sum Voltage (V),Carry Out Voltage (V),Sum Error Rate (Dimless),Carry Out Error Rate (Dimless),Energy Dissipation (J)
0,2.4900138749752943,2.499238919794468,0.00034401035775966093,1.0,2.8743852627762494e-19
100,2.480142908246241,2.4984785177623445,0.0005675365961461676,1.0,5.670703831074238e-19
200,2.470385834859058,2.497718797970738,0.0009143561229149055,1.0,8.392601194220188e-19
300,2.460741395826119,2.496959764497664,0.0014396740573699995,1.0,1.104356564080716e-18
400,2.451208351278074,2.4962014214219304,0.002216978037591133,1.0,1.3626924260407633e-18
500,2.441785480048195,2.4954437728133922,0.0033413452975150637,1.0,1.6145857383413741e-18
600,2.432471579272494,2.4946868227235774,0.004932327497548239,1.0,1.8603395327458465e-18
700,2.423265464001817,2.4939305751766585,0.007135995688443586,1.0,2.1002424916458134e-18
800,2.4141659668261863,2.4931750341607737,0.010125696118613026,1.0,2.334569429965267e-18
900,2.405171937510844,2.4924202036196785,0.014101085438537497,1.0,2.5635817964247393e-18
1000,2.3962822426434833,2.4916660874447243,0.01928509012390678,1.0,2.7875281879055697e-18
1100,2.3874957652921744,2.4909126894671485,0.025918570938327723,1.0,3.006644871254898e-18
1200,2.378811404673517,2.4901600134506734,0.03425266117865933,1.0,3.2211563074498277e-18
1300,2.370228075830584,2.489408063084398,0.044538970383756316,1.0,3.4312756737537234e-18
1400,2.361744709320234,2.48865684197598,0.057018078838760644,1.0,3.637205380059317e-18
1500,2.353360250909392,2.4879063536450907,0.07190696407879782,1.0,3.839137576316056e-18
1600,2.3450736612799252,2.4871566015171465,0.08938617018288941,1.0,4.0372546484471864e-18
1700,2.33688391574175,2.4864075889172947,0.10958762984421533,1.0,4.231729700716891e-18
1800,2.3287900039538276,2.4856593190646565,0.1325840621289901,1.0,4.4227270229719896e-18
1900,2.3207909296527274,2.484911795066812,0.15838079039852038,1.0,4.610402541544302e-18
2000,2.3128857103884415,2.484165019914522,0.18691066158781966,1.0,4.794904253004602e-18
2100,2.305073377267163,2.483418996476681,0.21803251704988957,1.0,4.9763726402428346e-18
2200,2.2973529747007433,2.482673727495489,0.25153339166070776,1.0,5.154941070584935e-18
2300,2.2897235601625594,2.4819292155818387,0.28713433137143085,1.0,5.330736175894595e-18
2400,2.282184203949545,2.481185463210911,0.324499449695721,1.0,5.503878214785051e-18
2500,2.2747339889501315,2.4804424727179675,0.36324761696742314,1.0,5.674481417168676e-18
2600,2.267372010417882,2.4797002462943416,0.4029660122478198,1.0,5.842654311559094e-18
2700,2.260097375750586,2.4789587859836115,0.44322467774252705,1.0,6.008500035549663e-18
2800,2.252909204274612,2.4782180936779583,0.48359120182781934,1.0,6.17211663001687e-18
2900,2.245806627034323,2.4774781711146963,0.5236447134083646,1.0,6.333597317613712e-18
3000,2.238788786586352,2.4767390198729733,0.5629884849305191,1.0,6.493030766185701e-18
3100,2.2318548367985707,2.4760006413706344,0.6012605972840257,1.0,6.6505013377204274e-18
3200,2.225003942653571,2.4752630368612425,0.638142298535699,1.0,6.8060893234873805e-18
3300,2.2182352800564975,2.4745262074312513,0.6733638718869102,1.0,6.959871166018017e-18
3400,2.211548035647074,2.4737901539973257,0.7067080006449461,1.0,7.111919668566093e-18
3500,2.2049414066156747,2.473054877303804,0.7380107670868559,1.0,7.262304192682695e-18
3600,2.1984146005233014,2.4723203779202976,0.7671605397624002,1.0,7.411090844517087e-18
3700,2.191966835125326,2.4715866562394218,0.7940950861108228,1.0,7.558342650463356e-18
3800,2.185597338198874,2.4708537124746557,0.8187972941069044,1.0,7.704119722721177e-18
3900,2.1793053473737225,2.4701215466583255,0.8412899008950113,1.0,7.848479415328425e-18
4000,2.1730901099666022,2.4693901586397056,0.8616296130501062,1.0,7.991476471216687e-18
4100,2.1669508828187833,2.4686595480832367,0.8799009684849769,1.0,8.133163160786716e-18
4200,2.160886932136846,2.467929714466853,0.8962102407641521,1.0,8.273589412502872e-18
4300,2.1548975333365314,2.467200657080417,0.9106796290686142,1.0,8.412802935973634e-18
4400,2.1489819708895777,2.466472375024257,0.9234419168954646,1.0,8.550849337952429e-18
4500,2.14313953817345,2.4657448672078073,0.9346357243221519,1.0,8.687772231682959e-18
4600,2.1373695373238752,2.46501813234834,0.9444014256764355,1.0,8.823613339981783e-18
4700,2.1316712790901016,2.464292168969793,0.9528777589185651,1.0,8.958412592429895e-18
4800,2.1260440826928004,2.4635669754016862,0.9601991160929766,1.0,9.09220821703764e-18
4900,2.1204872756845368,2.4628425497781232,0.9664934760975177,1.0,9.225036826696744e-18
5000,2.115000193812737,2.4621188900368796,0.9718809213327683,1.0,9.356933500747413e-18
5100,2.109582180885085,2.461395993918567,0.9764726676531803,1.0,9.487931861950593e-18
5200,2.104232588637281,2.4606738589658783,0.9803705312919387,1.0,9.618064149134704e-18
5300,2.098950776603101,2.4599524825229055,0.9836667558033533,1.0,9.747361285791974e-18
5400,2.0937361119867015,2.4592318617345303,0.9864441252980336,1.0,9.875852944850772e-18
5500,2.0885879695371083,2.4585119935458843,0.9887762961695995,1.0,1.000356760986877e-17
5600,2.0835057314248373,2.457792874701876,0.9907282871085716,1.0,1.0130532632855743e-17
5700,2.078488787120599,2.4570745017467814,0.9923570756277227,1.0,1.0256774288919953e-17
5800,2.0735365332760365,2.4563568710238997,0.9937122579240127,1.0,1.0382317827945925e-17
5900,2.068648373606449,2.4556399786752654,0.9948367371894999,1.0,1.0507187523461492e-17
6000,2.0638237187754616,2.454923820641421,0.9957674131258137,1.0,1.0631406718873135e-17
6100,2.0590619862815935,2.4542083926612435,0.9965358522127344,1.0,1.0754997871223706e-17
6200,2.0543626003466904,2.4534936902718267,0.9971689241343069,1.0,1.0877982592612947e-17
6300,2.049724991806178,2.4527797088084133,0.9976893946581599,1.0,1.1000381689427918e-17
6400,2.045148598001107,2.452066443404379,0.9981164692342788,1.0,1.1122215199502072e-17
6500,2.040632862671947,2.4513538889912616,0.9984662847045565,1.0,1.1243502427327603e-17
6600,2.0361772358541033,2.450642040298841,0.9987523488916232,1.0,1.1364261977442883e-17
6700,2.031781173775121,2.4499308918552596,0.9989859295716333,1.0,1.1484511786079026e-17
6800,2.027444138753549,2.4492204379871882,0.9991763955381514,1.0,1.1604269151194632e-17
6900,2.0231655990994346,2.4485106728200328,0.9993315132346382,1.0,1.1723550760964891e-17
7000,2.01894502901642,2.447801590278181,0.9994577028633933,1.0,1.1842372720828948e-17
7100,2.0147819085054177,2.447093184085289,0.9995602580498039,1.0,1.1960750579175876e-17
7200,2.010675723269836,2.446385447764602,0.9996435331208056,1.0,1.2078699351737338e-17
7300,2.006625964622336,2.445678374639315,0.9997111019021275,1.0,1.2196233544772756e-17
7400,2.002632129393091,2.444971957832964,0.999765891695602,1.0,1.2313367177102674e-17
7500,1.9986937198395338,2.4442661902698517,0.9998102958011527,1.0,1.2430113801063501e-17
7600,1.9948102435575623,2.4435610646755093,0.9998462676250863,1.0,1.2546486522438816e-17
7700,1.9909812133941929,2.442856573577182,0.9998753990869118,1.0,1.2662498019423569e-17
7800,1.9872061473616356,2.442152709304351,0.9998989857151676,1.0,1.2778160560676442e-17
7900,1.9834845685527747,2.4414494639892785,0.9999180805181072,1.0,1.2893486022513886e-17
8000,1.9798160050580373,2.440746829567587,0.9999335384333751,1.0,1.300848590527852e-17
8100,1.9761999898836333,2.4400447977788584,0.999946052905135,1.0,1.3123171348945381e-17
8200,1.972636060871148,2.4393433601672645,0.999956185908584,1.0,1.3237553147992362e-17
8300,1.9691237606184748,2.4386425080822183,0.9999643925401209,1.0,1.3351641765580989e-17
8400,1.9656626364020702,2.437942232679052,0.9999710411153894,1.0,1.3465447347084204e-17
8500,1.962252240100516,2.437242524919718,0.9999764295651693,1.0,1.3578979732994031e-17
8600,1.9588921281193767,2.436543375573509,0.9999807987884906,1.0,1.3692248471240663e-17
8700,1.955581861317336,2.435844775217806,0.9999843435111126,1.0,1.3805262828958648e-17
8800,1.9523210049335988,2.4351467142388388,0.9999872211033868,1.0,1.3918031803722787e-17
8900,1.949109128516548,2.4344491828324752,0.9999895587322988,1.0,1.4030564134291088e-17
9000,1.9459458058536394,2.433752171005023,0.9999914591561703,1.0,1.4142868310862798e-17
9100,1.9428306149025256,2.4330556685740548,0.9999930054152143,1.0,1.4254952584899826e-17
9200,1.9397631377233946,2.4323596651692485,0.9999942646252541,1.0,1.4366824978512965e-17
9300,1.936742960412512,2.4316641502332472,0.9999952910439625,1.0,1.4478493293450073e-17
9400,1.9337696730369536,2.430969113022535,0.9999961285476964,1.0,1.458996511969408e-17
9500,1.93084286957052,2.430274542608329,0.9999968126312928,1.0,1.470124784370337e-17
9600,1.9279621478308173,2.42958042787749,0.9999973720221171,1.0,1.4812348656301903e-17
9700,1.9251271094174969,2.4288867575334425,0.9999978299824315,1.0,1.4923274560242416e-17
9800,1.9223373596516395,2.428193520097117,0.9999982053600923,1.0,1.503403237745916e-17
9900,1.9195925075162772,2.4275007039079024,0.9999985134361444,1.0,1.5144628756020417e-17
10000,1.9168921655980364,2.426808297124612,0.9999987666085758,1.0,1.5255070176804967e-17
10100,1.9142359500298975,2.4261162877264657,0.9999989749439554,1.0,1.536536295990676e-17
10200,1.9116234804350556,2.4254246635140846,0.9999991466225545,1.0,1.547551327078402e-17
10300,1.9090543798718735,2.4247334121104966,0.9999992882976072,1.0,1.5585527126174917e-17
10400,1.9065282747799182,2.4240425209621574,0.9999994053853629,1.0,1.5695410399772725e-17
10500,1.9040447949270667,2.423351977339981,0.9999995022993526,1.0,1.5805168827693868e-17
10600,1.9016035733576737,2.4226617683403844,0.9999995826396834,1.0,1.591480801372845e-17
10700,1.89920424634179,2.4219718808863417,0.9999996493460706,1.0,1.6024333434399588e-17
10800,1.8968464533254192,2.4212823017284517,0.9999997048216271,1.0,1.613375044383289e-17
10900,1.8945298368818062,2.4205930174460133,0.9999997510330586,1.0,1.6243064278448306e-17
11000,1.892254042663743,2.4199040144481145,0.9999997895918158,1.0,1.635228006148626e-17
11100,1.8900187193568843,2.4192152789747317,0.9999998218198742,1.0,1.6461402807366208e-17
11200,1.8878235186340602,2.418526797097837,0.9999998488030915,1.0,1.65704374258961e-17
11300,1.8856680951105786,2.417838554722517,0.9999998714345256,1.0,1.6679388726338222e-17
11400,1.8835521063005027,2.417150537588101,0.999999890449634,1.0,1.6788261421334348e-17
11500,1.8814752125738967,2.4164627312693003,0.9999999064548991,1.0,1.6897060130700114e-17
11600,1.8794370771150268,2.4157751211773544,0.9999999199511329,1.0,1.700578938509655e-17
11700,1.8774373658815091,2.4150876925611873,0.9999999313524658,1.0,1.711445362958398e-17
11800,1.8754757475643913,2.414400430508574,0.9999999410018368,1.0,1.7223057227065282e-17
11900,1.8735518935491593,2.4137133199473144,0.9999999491836419,1.0,1.7331604461619368e-17
12000,1.8716654778776576,2.4130263456464176,0.9999999561340734,1.0,1.74400995417375e-17
12100,1.8698161772109123,2.4123394922172925,0.999999962049582,1.0,1.7548546603467694e-17
12200,1.8680036707928467,2.4116527441149493,0.9999999670938089,1.0,1.7656949713461872e-17
12300,1.8662276404148783,2.410966085639208,0.9999999714032732,1.0,1.776531287195025e-17
12400,1.8644877703813858,2.410279500935914,0.999999975092042,1.0,1.7873640015621627e-17
12500,1.8627837474760371,2.409592973998167,0.9999999782555705,1.0,1.7981930768065166e-17
12600,1.8611152609289645,2.4089064886675495,0.999999980973864,1.0,1.8090074826060392e-17
12700,1.8594820023847793,2.4082200286353723,0.9999999833140842,1.0,1.8198075720209524e-17
12800,1.857883665871413,2.4075335774439215,0.9999999853327005,1.0,1.8305938543568508e-17
12900,1.8563199477697785,2.406847118487715,0.9999999870772681,1.0,1.8413668269862434e-17
13000,1.8547905467842363,2.40616063501477,0.9999999885878993,1.0,1.8521269759551544e-17
13100,1.8532951639138557,2.405474110127872,0.9999999898984828,1.0,1.8628747765611233e-17
13200,1.8518335024244585,2.404787526785858,0.9999999910376964,1.0,1.8736106939052373e-17
13300,1.8504052678214347,2.4041008678049014,0.9999999920298464,1.0,1.884335183419769e-17
13400,1.8490101678233202,2.40341411585981,0.999999992895569,1.0,1.8950486913744038e-17
13500,1.8476479123361256,2.402727253485326,0.9999999936524115,1.0,1.9057516553614174e-17
13600,1.8463182134284033,2.4020402630774385,0.9999999943153202,1.0,1.916444504762243e-17
13700,1.8450207853070448,2.401353126894699,0.9999999948970459,1.0,1.9271276611971453e-17
13800,1.8437553442937962,2.4006658270595485,0.9999999954084849,1.0,1.93780153895875e-17
13900,1.84252160880248,2.399978345559647,0.9999999958589632,1.0,1.9484665454308637e-17
14000,1.8413192993169163,2.399290664249216,0.9999999962564763,1.0,1.9591230814947474e-17
14100,1.8401481383695286,2.398602764850384,0.99999999660789,1.0,1.9697715419225494e-17
14200,1.8390078505206275,2.3979146289545397,0.9999999969191095,1.0,1.9804123157604897e-17
14300,1.8378938860170404,2.3972262380236957,0.9999999971962383,1.0,1.9910449522328725e-17
14400,1.8368008856783602,2.3965375733918552,0.99999999744451,1.0,2.0016688463621278e-17
14500,1.835728690219288,2.3958486162663895,0.999999997667211,1.0,2.012284403371925e-17
14600,1.8346771396711197,2.3951593477294195,0.999999997867227,1.0,2.022892023258301e-17
14700,1.8336460734661126,2.3944697487392075,0.9999999980470945,1.0,2.033492101173077e-17
14800,1.832635330516799,2.3937798001315533,0.9999999982090451,1.0,2.0440850277994697e-17
14900,1.8316447492905863,2.3930894826212006,0.9999999983550449,1.0,2.0546711897220134e-17
15000,1.8306741678799623,2.392398776803247,0.9999999984868275,1.0,2.0652509697900972e-17
15100,1.8297234240685993,2.391707663154565,0.9999999986059233,1.0,2.0758247474775373e-17
15200,1.8287923553936274,2.391016122035226,0.9999999987136847,1.0,2.0863928992384554e-17
15300,1.8278807992043276,2.390324133689936,0.9999999988113083,1.0,2.0969557988604582e-17
15400,1.82698859271748,2.389631678249475,0.9999999988998537,1.0,2.107513817815697e-17
15500,1.82611557306958,2.3889387357321437,0.9999999989802603,1.0,2.118067325611483e-17
15600,1.8252615773661236,2.38824528604522,0.999999999053362,1.0,2.1286166901401683e-17
15700,1.8244264427281507,2.3875513089864198,0.9999999991198996,1.0,2.1391540025757998e-17
15800,1.823610006336214,2.386856784245367,0.9999999991805318,1.0,2.1496737494526754e-17
15900,1.8228121054719382,2.3861616914050696,0.9999999992358457,1.0,2.1601762633836523e-17
16000,1.8220325775573178,2.3854660099434013,0.9999999992863638,1.0,2.1706618684794398e-17
16100,1.821271260191893,2.384769719234594,0.9999999993325531,1.0,2.1811308806243224e-17
16200,1.8205279911879313,2.3840727985507346,0.99999999937483,1.0,2.19158360774128e-17
16300,1.8198026086037384,2.3833752270632695,0.9999999994135672,1.0,2.2020203500453496e-17
16400,1.81909495077521,2.3826769838445165,0.9999999994490982,1.0,2.212441400288107e-17
16500,1.818404856345728,2.381978047869183,0.9999999994817219,1.0,2.22284704399188e-17
16600,1.8177321642945004,2.3812783980158923,0.9999999995117062,1.0,2.2332375596743558e-17
16700,1.817076713963437,2.3805780130687166,0.9999999995392918,1.0,2.243613219065565e-17
16800,1.8164383450826451,2.3798768717187166,0.9999999995646948,1.0,2.2539742873155027e-17
16900,1.8158168977946247,2.3791749525654886,0.9999999995881097,1.0,2.264321023194325e-17
17000,1.8152122126772394,2.378472234118717,0.9999999996097118,1.0,2.274653679285076e-17
17100,1.8146241307655306,2.3777686947997383,0.9999999996296589,1.0,2.284972502168755e-17
17200,1.8140524935724422,2.3770643129431055,0.9999999996480934,1.0,2.2952777326032204e-17
17300,1.813497143108516,2.376359066798164,0.999999999665144,1.0,2.3055696056945908e-17
17400,1.812957921900614,2.3756529345306348,0.9999999996809269,1.0,2.31584835106345e-17
17500,1.812434673009722,2.3749458942242003,0.9999999996955473,1.0,2.3261141930039554e-17
17600,1.8119272400478854,2.3742379238821014,0.9999999997091006,1.0,2.3363673506384213e-17
17700,1.8114354671943214,2.373529001428739,0.9999999997216729,1.0,2.3466080380655344e-17
17800,1.8109591992107548,2.3728191047112825,0.9999999997333427,1.0,2.356836464503577e-17
17900,1.8104982814560153,2.372108211501287,0.9999999997441811,1.0,2.3670528344288702e-17
18000,1.810052559899938,2.371396299496314,0.9999999997542527,1.0,2.3772573477093324e-17
18100,1.8096218811366,2.37068334632156,0.9999999997636162,1.0,2.3874501997335264e-17
18200,1.809206092396931,2.3699693295314948,0.9999999997723252,1.0,2.3976315815348708e-17
18300,1.8088050415607253,2.3692542266115,0.9999999997804284,1.0,2.4078016799123735e-17
18400,1.808418577168088,2.3685380149795208,0.9999999997879703,1.0,2.417960677546816e-17
18500,1.8080465484303436,2.3678206719877193,0.9999999997949912,1.0,2.4281087531133565e-17
18600,1.8076888052404307,2.3671021749241365,0.9999999998015283,1.0,2.438246081390348e-17
18700,1.80734519818281,2.366382501014361,0.9999999998076152,1.0,2.448372833364798e-17
18800,1.8070155785429074,2.3656616274232016,0.9999999998132829,1.0,2.458489176333896e-17
18900,1.806699798316116,2.3649395312563697,0.9999999998185596,1.0,2.4685952740037886e-17
19000,1.8063977102163729,2.3642161895621645,0.9999999998234711,1.0,2.4786912865851146e-17
19100,1.8061091676843362,2.3634915793331666,0.999999999828041,1.0,2.488777370885521e-17
19200,1.805834024895175,2.362765677507936,0.999999999832291,1.0,2.498853680399485e-17
19300,1.8055721367659916,2.362038460972718,0.999999999836241,1.0,2.5089203653944768e-17
19400,1.8053233589628932,2.3613099065631524,0.999999999839909,1.0,2.518977572995675e-17
19500,1.8050875479077244,2.360579991065992,0.9999999998433117,1.0,2.529025447267644e-17
19600,1.8048645607844784,2.3598486912208227,0.9999999998464643,1.0,2.539064129292793e-17
19700,1.8046542555453982,2.359115983721794,0.9999999998493807,1.0,2.549093757248849e-17
19800,1.8044564909167802,2.3583818452193492,0.9999999998520739,1.0,2.5591144664830163e-17
19900,1.8042711264044928,2.3576462523219686,0.9999999998545556,1.0,2.5691263895843173e-17
20000,1.8040980222992211,2.3569091815979095,0.9999999998568363,1.0,2.579129656453578e-17
20100,1.8039370396814465,2.3561706095769597,0.999999999858926,1.0,2.5891243943716562e-17
20200,1.8037880404261735,2.35543051275219,0.9999999998608334,1.0,2.599110728065848e-17
20300,1.8036508872074115,2.3546888675817166,0.999999999862567,1.0,2.6090887797735824e-17
20400,1.8035254435024197,2.3539456504904632,0.9999999998641342,1.0,2.6190586693053675e-17
20500,1.8034115735957252,2.353200837871934,0.9999999998655416,1.0,2.629020514105017e-17
20600,1.8033091425829206,2.352454406089987,0.9999999998667954,1.0,2.6389744293090697e-17
20700,1.8032180163742488,2.3517063314806146,0.9999999998679013,1.0,2.6489205278037747e-17
20800,1.8031380616979822,2.3509565903537273,0.9999999998688642,1.0,2.6588589202810112e-17
20900,1.8030691461036024,2.3502051589949424,0.9999999998696887,1.0,2.668789715292395e-17
21000,1.8030111379647873,2.3494520136673773,0.9999999998703788,1.0,2.6787130193020488e-17
21100,1.802963906482211,2.348697130613447,0.999999999870938,1.0,2.6886289367381752e-17
21200,1.8029273216861612,2.347940486056666,0.9999999998713696,1.0,2.6985375700424353e-17
21300,1.802901254438981,2.347182056203452,0.9999999998716761,1.0,2.7084390197191e-17
21400,1.8028855764373393,2.346421817244939,0.9999999998718602,1.0,2.7183333843819674e-17
21500,1.8028801602143336,2.345659745358787,0.9999999998719237,1.0,2.728220760800941e-17
21600,1.8028848791414318,2.3448958167110012,0.9999999998718684,1.0,2.7381012439464324e-17
21700,1.8028996074302555,2.344130007457751,0.9999999998716955,1.0,2.7479749270330534e-17
21800,1.8029242201342084,2.343362293747196,0.999999999871406,1.0,2.7578419015625112e-17
21900,1.802958593149956,2.3425926517213096,0.9999999998710007,1.0,2.767702257364913e-17
22000,1.8030026032187592,2.341821057517713,0.9999999998704799,1.0,2.7775560826394016e-17
22100,1.8030561279276622,2.341047487271507,0.9999999998698439,1.0,2.787403463992989e-17
