Timestep (s),Sum Voltage (V),Carry Out Voltage (V),Sum Error Rate (Dimless),Carry Out Error Rate (Dimless),Energy Dissipation (J)
0,0.30277773769792715,4.722391900201743,1.0,1.0,918079.1385080507
100,0.30271561248533213,4.722465755656647,1.0,1.0,1854143.1055335705
200,0.3026543071478136,4.72253958230332,1.0,1.0,2808520.238477831
300,0.3025938234185916,4.722613380153716,1.0,1.0,3781527.1846448183
400,0.3025341630316778,4.722687149219526,1.0,1.0,4773469.042988748
500,0.3024753277218875,4.722760889512189,1.0,1.0,5784639.540486555
600,0.30241731922485154,4.722834601042894,1.0,1.0,6815321.237159756
700,0.3023601392770276,4.722908283822588,1.0,1.0,7865785.754366785
800,0.3023037896157118,4.7229819378619835,1.0,1.0,8936294.021542639
900,0.30224827197904985,4.723055563171563,1.0,1.0,10027096.537114665
1000,0.3021935881060479,4.723129159761586,1.0,1.0,11138433.639836688
1100,0.30213973973658337,4.723202727642092,1.0,1.0,12270535.787273102
1200,0.30208672861141556,4.7232762668229045,1.0,1.0,13423623.838601757
1300,0.3020345564721959,4.723349777313636,1.0,1.0,14597909.33932161
1400,0.301983225061478,4.723423259123694,1.0,1.0,15793594.80580155
1500,0.30193273612272775,4.723496712262281,1.0,1.0,17010874.007954504
1600,0.3018830914003328,4.723570136738399,1.0,1.0,18249932.24859199
1700,0.30183429263961226,4.723643532560853,1.0,1.0,19510946.638291482
1800,0.3017863415868256,4.723716899738255,1.0,1.0,20794086.364818413
1900,0.30173923998918184,4.723790238279024,1.0,1.0,22099512.956348147
2000,0.3016929895948482,4.7238635481913915,1.0,1.0,23427380.537909396
2100,0.3016475921529587,4.723936829483402,1.0,1.0,24777836.080600686
2200,0.3016030494136224,4.724010082162915,1.0,1.0,26151019.643279962
2300,0.30155936312793136,4.724083306237611,1.0,1.0,27547064.606503323
2400,0.3015165350479683,4.724156501714987,1.0,1.0,28966097.89861002
2500,0.3014745669268143,4.724229668602363,1.0,1.0,30408240.213904247
2600,0.30143346051855574,4.724302806906884,1.0,1.0,31873606.22295985
2700,0.3013932175782916,4.724375916635521,1.0,1.0,33362304.775109824
2800,0.3013538398621397,4.724448997795069,1.0,1.0,34874439.0932474
2900,0.3013153291272435,4.724522050392156,1.0,1.0,36410106.961073674
3000,0.3012776871317778,4.724595074433236,1.0,1.0,37969400.9029739
3100,0.301240915634955,4.7246680699246,1.0,1.0,39552408.356715016
3200,0.3012050163970299,4.724741036872366,1.0,1.0,41159211.83916988
3300,0.3011699911793057,4.724813975282492,1.0,1.0,42789889.1052958
3400,0.30113584174413827,4.724886885160769,1.0,1.0,44444513.30059006
3500,0.3011025698549408,4.724959766512826,1.0,1.0,46123153.10726066
3600,0.30107017727618834,4.7250326193441285,1.0,1.0,47825872.884341836
3700,0.30103866577342125,4.725105443659984,1.0,1.0,49552732.80198931
3800,0.30100803711324897,4.72517823946554,1.0,1.0,51303788.9701911
3900,0.3009782930633531,4.7252510067657845,1.0,1.0,53079093.562122226
4000,0.3009494353924903,4.725323745565548,1.0,1.0,54878694.932365455
4100,0.3009214658704946,4.7253964558695065,1.0,1.0,56702637.73021896
4200,0.3008943862682796,4.725469137682179,1.0,1.0,58550963.00830817
4300,0.30086819835783996,4.725541791007931,1.0,1.0,60423708.32670465
4400,0.300842903912253,4.725614415850974,1.0,1.0,62320907.852749735
4500,0.30081850470567917,4.72568701221537,1.0,1.0,64242592.456789106
4600,0.3007950025133628,4.7257595801050245,1.0,1.0,66188789.80398914
4700,0.3007723991116318,4.725832119523696,1.0,1.0,68159524.44242238
4800,0.3007506962778976,4.725904630474994,1.0,1.0,70154817.88759494
4900,0.300729895790654,4.725977112962376,1.0,1.0,72174688.70357944
5000,0.30070999942947596,4.726049566989152,1.0,1.0,74219152.5809097
5100,0.3006910089750177,4.726121992558488,1.0,1.0,76288222.41138673
5200,0.3006729262090105,4.7261943896734,1.0,1.0,78381908.35994604
5300,0.30065575291425956,4.72626675833676,1.0,1.0,80500217.93371968
5400,0.3006394908746412,4.726339098551296,1.0,1.0,82643156.04842429
5500,0.3006241418750987,4.7264114103195904,1.0,1.0,84810725.09220348
5600,0.3006097077016378,4.726483693644083,1.0,1.0,87002924.98704006
5700,0.3005961901413219,4.7265559485270705,1.0,1.0,89219753.24785583
5800,0.30058359098226634,4.726628174970709,1.0,1.0,91461205.03940178
5900,0.30057191201363254,4.726700372977013,1.0,1.0,93727273.23105194
6000,0.300561155025621,4.726772542547857,1.0,1.0,96017948.44958454
6100,0.3005513218094639,4.726844683684975,1.0,1.0,98333219.13005869
6200,0.30054241415741745,4.726916796389963,1.0,1.0,100673071.56486301
6300,0.3005344338627528,4.726988880664279,1.0,1.0,103037489.95103134
6400,0.30052738271974655,4.727060936509242,1.0,1.0,105426456.43589556
6500,0.3005212625236712,4.727132963926037,1.0,1.0,107839951.16116124
6600,0.30051607507078376,4.72720496291571,1.0,1.0,110277952.30547158
6700,0.30051182215831473,4.727276933479174,1.0,1.0,112740436.12553208
6800,0.30050850558445513,4.7273488756172055,1.0,1.0,115227376.99586438
6900,0.30050612714834396,4.727420789330448,1.0,1.0,117738747.44724603
7000,0.30050468865005364,4.727492674619411,1.0,1.0,120274518.20389658
7100,0.3005041918905756,4.727564531484472,1.0,1.0,122834658.21947269
7200,0.3005046386718043,4.727636359925874,1.0,1.0,125419134.71191606
7300,0.3005060307965209,4.727708159943733,1.0,1.0,128027913.19721535
7400,0.3005083700683752,4.72777993153803,1.0,1.0,130660957.52212219
7500,0.30051165829186766,4.727851674708617,1.0,1.0,133318229.89587465
7600,0.30051589727232925,4.727923389455219,1.0,1.0,135999690.92096412
7700,0.3005210888159017,4.727995075777428,1.0,1.0,138705299.6229981
7800,0.30052723472951504,4.72806673367471,1.0,1.0,141435013.47968408
7900,0.30053433682086506,4.728138363146405,1.0,1.0,144188788.4489917
8000,0.30054514722075193,4.728209964191722,1.0,1.0,146966578.9960221
8100,0.3005605181529238,4.728281536809746,1.0,1.0,149768338.1204282
8200,0.3005804313626293,4.728353080999436,1.0,1.0,152594017.38209876
8300,0.30060486879053805,4.728424596759625,1.0,1.0,155443566.92618027
8400,0.30063381257081534,4.728496084089023,1.0,1.0,158316935.5075779
8500,0.30066724502921566,4.728567542986213,1.0,1.0,161214070.5148178
8600,0.30070514868119746,4.728638973449659,1.0,1.0,164134917.99329528
8700,0.3007475062300584,4.728710375477698,1.0,1.0,167079422.66793135
8800,0.3007943005650897,4.728781749068547,1.0,1.0,170047527.96527517
8900,0.30084551475975124,4.728853094220301,1.0,1.0,173039176.0350597
9000,0.30090113206986535,4.728924410930933,1.0,1.0,176054307.77124113
9100,0.30096113593183066,4.728995699198297,1.0,1.0,179092862.83253986
9200,0.3010255099608549,4.729066959020126,1.0,1.0,182154779.66251025
9300,0.30109423794920603,4.729138190394034,1.0,1.0,185239995.50914815
9400,0.3011673038644822,4.729209393317516,1.0,1.0,188348446.44406313
9500,0.30124469184790076,4.72928056778795,1.0,1.0,191480067.3812282
9600,0.3013263862126042,4.729351713802595,1.0,1.0,194634792.09532747
9700,0.3014123714419849,4.729422831358593,1.0,1.0,197812553.23970836
9800,0.3015026321880275,4.7294939204529705,1.0,1.0,201013282.3639736
9900,0.3015971532696681,4.729564981082637,1.0,1.0,204236909.93119767
10000,0.30169591967117165,4.729636013244388,1.0,1.0,207483365.334817
10100,0.30179891654052576,4.729707016934902,1.0,1.0,210752576.91517544
10200,0.3019061291878516,4.729777992150745,1.0,1.0,214044471.97575805
10300,0.3020175430838312,4.729848938888369,1.0,1.0,217358976.7991174
10400,0.3021331438581518,4.729919857144114,1.0,1.0,220696016.6625023
10500,0.30225291729796555,4.729990746914203,1.0,1.0,224055515.85320544
10600,0.30237684934636605,4.730061608194752,1.0,1.0,227437397.6836371
10700,0.30250492610088026,4.730132440981764,1.0,1.0,230841584.506138
10800,0.30263713381197627,4.730203245271129,1.0,1.0,234267997.7275382
10900,0.30277345888158663,4.730274021058628,1.0,1.0,237716557.82347134
11000,0.3029138878616466,4.730344768339933,1.0,1.0,241187184.3524538
11100,0.3030584074526477,4.730415487110604,1.0,1.0,244679795.96973622
11200,0.30320700450220667,4.730486177366095,1.0,1.0,248194310.4409406
11300,0.3033596660036479,4.73055683910175,1.0,1.0,251730644.6554855
11400,0.30351637909460183,4.730627472312804,1.0,1.0,255288714.63980463
11500,0.303677131055617,4.730698076994388,1.0,1.0,258868435.57037356
11600,0.3038419093087861,4.7307686531415225,1.0,1.0,262469721.78654778
11700,0.30401070141638675,4.7308392007491245,1.0,1.0,266092486.80321285
11800,0.30418349507953557,4.730909719812004,1.0,1.0,269736643.3232634
11900,0.3043602781368561,4.730980210324867,1.0,1.0,273402103.24991
12000,0.30454103856316056,4.731050672282311,1.0,1.0,277088777.69882303
12100,0.30472576446814437,4.7311211056788345,1.0,1.0,280796577.01011443
12200,0.30491444409509466,4.731191510508828,1.0,1.0,284525410.7601661
12300,0.30510706581961117,4.731261886766581,1.0,1.0,288275187.7733155
12400,0.30530361814834034,4.731332234446279,1.0,1.0,292045816.1333877
12500,0.3055040897177223,4.731402553542008,1.0,1.0,295837203.1950928
12600,0.30570846929275014,4.731472844047747,1.0,1.0,299649255.5952943
12700,0.30591674576574185,4.731543105957379,1.0,1.0,303481879.2641357
12800,0.3061289081551244,4.731613339264683,1.0,1.0,307334979.4360486
12900,0.3063449456042302,4.731683543963339,1.0,1.0,311208460.6606359
13000,0.3065648473801054,4.731753720046926,1.0,1.0,315102226.813434
13100,0.30678860287233006,4.731823867508926,1.0,1.0,319016181.10656554
13200,0.3070162015918501,4.73189398634272,1.0,1.0,322950226.0992737
13300,0.3072476331698208,4.7319640765415905,1.0,1.0,326904263.7083532
13400,0.30748288735646184,4.732034138098724,1.0,1.0,330878195.21847117
13500,0.3077219540199236,4.732104171007208,1.0,1.0,334871921.2923885
13600,0.3079648231451646,4.732174175260034,1.0,1.0,338885341.9810831
13700,0.30821148483284,4.732244150850096,1.0,1.0,342918356.73377675
13800,0.30846192929820115,4.732314097770192,1.0,1.0,346970864.4078618
13900,0.30871614687000587,4.732384016013025,1.0,1.0,351042763.2787464
14000,0.3089741279894391,4.732453905571203,1.0,1.0,355133951.04959905
14100,0.30923586320904467,4.7325237664372395,1.0,1.0,359244324.86102086
14200,0.30950134319166717,4.732593598603553,1.0,1.0,363373781.30062234
14300,0.3097705587094038,4.732663402062469,1.0,1.0,367522216.4125182
14400,0.310043500642567,4.732733176806219,1.0,1.0,371689525.70675236
14500,0.3103201599786569,4.732802922826942,1.0,1.0,375875604.16863406
14600,0.31060052781134345,4.732872640116686,1.0,1.0,380080346.2680036
14700,0.3108845953394586,4.732942328667405,1.0,1.0,384303645.96842074
14800,0.31117235386599845,4.733011988470961,1.0,1.0,388545396.7362852
14900,0.3114637947971344,4.733081619519129,1.0,1.0,392805491.5498818
15000,0.31175890964123415,4.733151221803587,1.0,1.0,397083822.90835696
15100,0.31205769000789224,4.73322079531593,1.0,1.0,401380282.84063023
15200,0.3123601276069694,4.733290340047657,1.0,1.0,405694762.9142387
15300,0.3126662142476414,4.733359855990181,1.0,1.0,410027154.244114
15400,0.3129759418374568,4.733429343134826,1.0,1.0,414377347.50130016
15500,0.3132893023814036,4.733498801472828,1.0,1.0,418745232.9216049
15600,0.3136062879809851,4.733568230995331,1.0,1.0,423130700.31419694
15700,0.3139268908333038,4.733637631693397,1.0,1.0,427533639.0701355
15800,0.3142511032301546,4.733707003557997,1.0,1.0,431953938.17084605
15900,0.31457891755712636,4.733776346580017,1.0,1.0,436391486.1965381
16000,0.3149103262927115,4.733845660750255,1.0,1.0,440846171.3345671
16100,0.31524532200742456,4.733914946059425,1.0,1.0,445317881.387741
16200,0.3155838973629285,4.733984202498154,1.0,1.0,449806503.7825705
16300,0.3159260451111695,4.734053430056984,1.0,1.0,454311925.57746863
16400,0.31627175809351954,4.734122628726374,1.0,1.0,458834033.47089714
16500,0.3166210292399271,4.734191798496697,1.0,1.0,463372713.80945724
16600,0.31697385156807567,4.734260939358242,1.0,1.0,467927852.59593785
16700,0.3173302181825502,4.734330051301215,1.0,1.0,472499335.49730706
16800,0.3176901222740109,4.734399134315739,1.0,1.0,477087047.852655
16900,0.31805355711837496,4.734468188391854,1.0,1.0,481690874.68108904
17000,0.3184205160760057,4.734537213519518,1.0,1.0,486310700.6895844
17100,0.31879099259090893,4.734606209688607,1.0,1.0,490946410.2807817
17200,0.31916498018993705,4.734675176888916,1.0,1.0,495597887.560738
17300,0.31954247248200013,4.734744115110157,1.0,1.0,500265016.3466422
17400,0.31992346315728415,4.734813024341963,1.0,1.0,504947680.1744704
17500,0.32030794598647655,4.734881904573886,1.0,1.0,509645762.3066032
17600,0.32069591481999854,4.734950755795397,1.0,1.0,514359145.7393995
17700,0.32108736358724443,4.735019577995891,1.0,1.0,519087713.21072525
17800,0.3214822862958281,4.735088371164678,1.0,1.0,523831347.20743895
17900,0.3218806770308356,4.735157135290994,1.0,1.0,528589929.9728322
18000,0.3222825299540852,4.735225870363994,1.0,1.0,533363343.51402885
18100,0.32268783930339345,4.735294576372756,1.0,1.0,538151469.6093415
18200,0.3230965993918482,4.73536325330628,1.0,1.0,542954189.8155884
18300,0.32350880460708775,4.735431901153489,1.0,1.0,547771385.4753659
18400,0.3239244494105868,4.735500519903227,1.0,1.0,552602937.7242808
18500,0.3243435283369483,4.735569109544263,1.0,1.0,557448727.4981421
18600,0.3247660359932019,4.73563767006529,1.0,1.0,562308635.5401115
18700,0.3251919670581084,4.735706201454924,1.0,1.0,567182542.4078146
18800,0.3256213162814702,4.735774703701706,1.0,1.0,572070328.4804107
18900,0.3260540784834482,4.735843176794101,1.0,1.0,576971873.9656241
19000,0.32649024855388437,4.7359116207205005,1.0,1.0,581887058.9067384
19100,0.32692982145163013,4.735980035469219,1.0,1.0,586815763.1895454
19200,0.3273727922038808,4.736048421028499,1.0,1.0,591757866.5492593
19300,0.32781915590551597,4.73611677738651,1.0,1.0,596713248.5773917
19400,0.3282689077184449,4.736185104531344,1.0,1.0,601681788.728589
19500,0.3287220428709586,4.736253402451024,1.0,1.0,606663366.3274274
19600,0.3291785566570864,4.736321671133497,1.0,1.0,611657860.5751739
19700,0.32963844443595897,4.736389910566639,1.0,1.0,616665150.5565076
19800,0.33010170163117614,4.736458120738254,1.0,1.0,621685115.2462026
19900,0.3305683237301806,4.736526301636073,1.0,1.0,626717633.5157756
20000,0.3310383062836364,4.736594453247757,1.0,1.0,631762584.1400911
20100,0.3315116449048134,4.736662575560894,1.0,1.0,636819845.8039314
20200,0.33198833526897636,4.736730668563003,1.0,1.0,641889297.1085334
20300,0.33246837311277944,4.736798732241531,1.0,1.0,646970816.5780809
20400,0.33295175423366585,4.736866766583855,1.0,1.0,652064282.6661649
20500,0.3334384744892724,4.736934771577283,1.0,1.0,657169573.7622058
20600,0.3339285297968391,4.7370027472090515,1.0,1.0,662286568.1978358
20700,0.3344219161326239,4.737070693466331,1.0,1.0,667415144.2532483
20800,0.33491862953132184,4.737138610336219,1.0,1.0,672555180.1635092
20900,0.3354186660854895,4.737206497805746,1.0,1.0,677706554.1248301
21000,0.3359220219449739,4.737274355861876,1.0,1.0,682869144.3008059
21100,0.3364286933163464,4.737342184491502,1.0,1.0,688042828.8286151
21200,0.336938676462341,4.7374099836814505,1.0,1.0,693227485.8251829
21300,0.3374519677012974,4.7374777534184815,1.0,1.0,698422993.3933103
21400,0.3379685634066085,4.737545493689286,1.0,1.0,703629229.6277642
21500,0.3384884600061729,4.737613204480489,1.0,1.0,708846072.6213324
21600,0.3390116539818509,4.737680885778649,1.0,1.0,714073400.4708396
21700,0.33953814186892595,4.737748537570258,1.0,1.0,719311091.283132
21800,0.3400679202555698,4.737816159841743,1.0,1.0,724559023.1810204
21900,0.34060098578231224,4.737883752579463,1.0,1.0,729817074.3091885
22000,0.341137335141515,4.737951315769713,1.0,1.0,735085122.8400655
22100,0.3416769650768501,4.738018849398725,1.0,1.0,740363046.9796638
22200,0.3422198723827819,4.738086353452662,1.0,1.0,745650724.9733763
22300,0.34276605390405396,4.738153827917625,1.0,1.0,750948035.1117405
22400,0.3433155065351793,4.73822127277965,1.0,1.0,756254855.736165
22500,0.34386822721993526,4.738288688024709,1.0,1.0,761571065.2446201
22600,0.34442421295086195,4.738356073638711,1.0,1.0,766896542.0972929
22700,0.344983460768765,4.7384234296075,1.0,1.0,772231164.8222022
22800,0.34554596776222196,4.738490755916858,1.0,1.0,777574812.0207813
22900,0.3461117310670926,4.738558052552503,1.0,1.0,782927362.3734248
23000,0.3466807478660332,4.738625319500093,1.0,1.0,788288694.6449926
23100,0.3472530153880147,4.73869255674522,1.0,1.0,793658687.6902853
23200,0.34782853090784394,4.738759764273416,1.0,1.0,799037220.4594809
23300,0.3484072917456897,4.738826942070151,1.0,1.0,804424172.0035303
23400,0.3489892952666114,4.738894090120834,1.0,1.0,809819421.4795218
23500,0.349574538880092,4.738961208410809,1.0,1.0,815222848.1560062
23600,0.3501630200395742,4.739028296925364,1.0,1.0,820634331.4182882
23700,0.3507547362420006,4.739095355649722,1.0,1.0,826053750.7736797
23800,0.3513496850273566,4.739162384569048,1.0,1.0,831480985.856715
23900,0.35194786397821776,4.739229383668445,1.0,1.0,836915916.4343301
24000,0.35254927071929987,4.739296352932958,1.0,1.0,842358422.4110073
24100,0.35315390291701254,4.739363292347569,1.0,1.0,847808383.8338836
24200,0.3537617582790165,4.739430201897204,1.0,1.0,853265680.8978171
24300,0.3543728345537838,4.739497081566727,1.0,1.0,858730193.9504237
24400,0.3549871295301617,4.739563931340943,1.0,1.0,864201803.4970708
24500,0.3556046410369394,4.739630751204598,1.0,1.0,869680390.2058394
24600,0.3562253669424183,4.739697541142382,1.0,1.0,875165834.9124461
24700,0.35684930515398544,4.739764301138924,1.0,1.0,880658018.6251317
24800,0.3574764536176899,4.739831031178794,1.0,1.0,886156822.5295074
24900,0.35810681031782254,4.739897731246507,1.0,1.0,891662127.9933715
25000,0.35874037327649866,4.739964401326517,1.0,1.0,897173816.5714843
25100,0.35937714055324377,4.740031041403224,1.0,1.0,902691770.0103041
25200,0.3600171102445826,4.740097651460967,1.0,1.0,908215870.2526916
25300,0.36066028048363064,4.740164231484031,1.0,1.0,913745999.4425763
25400,0.3613066494396891,4.740230781456643,1.0,1.0,919282039.9295839
25500,0.3619562153178426,4.740297301362972,1.0,1.0,924823874.2736254
25600,0.3626089763585598,4.740363791187132,1.0,1.0,930371385.2494551
25700,0.3632649308372968,4.740430250913182,1.0,1.0,935924455.8511859
25800,0.3639240770641034,4.740496680525122,1.0,1.0,941482969.2967683
25900,0.36458641338323255,4.740563080006898,1.0,1.0,947046809.0324379
26000,0.36525193817275203,4.740629449342401,1.0,1.0,952615858.737117
26100,0.36592064984415923,4.740695788515465,1.0,1.0,958190002.3267845
26200,0.36659254684199843,4.7407620975098705,1.0,1.0,963769123.9588099
26300,0.36726762764348114,4.7408283763093415,1.0,1.0,969353108.0362461
26400,0.36794589075810863,4.740894624897549,1.0,1.0,974941839.2120881
26500,0.3686273347272976,4.740960843258107,1.0,1.0,980535202.3934946
26600,0.369311958124008,4.7410270313745775,1.0,1.0,986133082.7459654
26700,0.36999975955237396,4.741093189230467,1.0,1.0,991735365.6974956
26800,0.3706907376473367,4.741159316809228,1.0,1.0,997341936.9426794
26900,0.3713848910742804,4.741225414094261,1.0,1.0,1002952682.4467831
27000,0.3720822185286705,4.74129148106891,1.0,1.0,1008567488.4497814
27100,0.3727827187356944,4.741357517716469,1.0,1.0,1014186241.4703519
27200,0.3734863904499047,4.741423524020175,1.0,1.0,1019808828.3098369
27300,0.37419323245486485,4.741489499963215,1.0,1.0,1025435136.0561632
27400,0.3749032435627971,4.741555445528722,1.0,1.0,1031065052.0877329
27500,0.37561642261423317,4.741621360699777,1.0,1.0,1036698464.0772659
27600,0.376332768477667,4.741687245459407,1.0,1.0,1042335259.995616
27700,0.37705228004920976,4.741753099790588,1.0,1.0,1047975328.1155434
27800,0.3777749562522476,4.741818923676244,1.0,1.0,1053618557.0154487
27900,0.37850079603710124,4.741884717099246,1.0,1.0,1059264835.5830741
28000,0.3792297983806881,4.741950480042415,1.0,1.0,1064914053.0191679
28100,0.37996196228618667,4.742016212488517,1.0,1.0,1070566098.8411051
