Timestep (s),Sum Voltage (V),Carry Out Voltage (V),Sum Error Rate (Dimless),Carry Out Error Rate (Dimless),Energy Dissipation (J)
0,0.3027775077269439,4.722391798335838,1.0,1.0,918065.8460670067
100,0.3027153830498851,4.722465653826725,1.0,1.0,1854116.5250638311
200,0.30265407824690044,4.722539480509366,1.0,1.0,2808480.374390126
300,0.30259359505121064,4.722613278395717,1.0,1.0,3781474.041348254
400,0.30253393519682814,4.7226870474974705,1.0,1.0,4773402.624890811
500,0.302475100418569,4.722760787826062,1.0,1.0,5784559.851993111
600,0.3024170924520647,4.722834499392682,1.0,1.0,6815228.282675063
700,0.3023599130337737,4.722908182208277,1.0,1.0,7865679.538293475
800,0.30230356390099283,4.7229818362835605,1.0,1.0,8936174.548281737
900,0.30224804679186856,4.723055461629015,1.0,1.0,10026963.811065575
1000,0.30219336344540776,4.723129058254899,1.0,1.0,11138287.665397208
1100,0.3021395156014886,4.723202626171252,1.0,1.0,12270376.568839429
1200,0.3020865050008711,4.723276165387899,1.0,1.0,13423451.380568463
1300,0.30203433338520735,4.723349675914452,1.0,1.0,14597723.646081664
1400,0.3019830024970519,4.723423157760318,1.0,1.0,15793395.881746313
1500,0.3019325140798713,4.723496610934699,1.0,1.0,17010661.85747373
1600,0.301882869878054,4.723570035446597,1.0,1.0,18249706.87607383
1700,0.3018340716369198,4.723643431304819,1.0,1.0,19510708.048122477
1800,0.3017861211027288,4.723716798517974,1.0,1.0,20793834.56138351
1900,0.301739020022691,4.7237901370944835,1.0,1.0,22099247.944030687
2000,0.3016927701449743,4.723863447042578,1.0,1.0,23427102.32109112
2100,0.30164737321871354,4.723936728370301,1.0,1.0,24777544.663661744
2200,0.30160283099401847,4.724009981085515,1.0,1.0,26150715.0305989
2300,0.3015591452219819,4.724083205195897,1.0,1.0,27546746.80245708
2400,0.3015163176546874,4.724156400708946,1.0,1.0,28965766.907573957
2500,0.3014743500452168,4.724229567631982,1.0,1.0,30407896.04025212
2600,0.30143324414765726,4.724302705972149,1.0,1.0,31873248.871063825
2700,0.30139300171710853,4.724375815736418,1.0,1.0,33361934.24934047
2800,0.3013536245096893,4.7244488969315865,1.0,1.0,34874055.3979737
2900,0.3013151142825437,4.724521949564279,1.0,1.0,36409710.10066302
3000,0.3012774727938474,4.7245949736409525,1.0,1.0,37968990.8817921
3100,0.3012407018028134,4.7246679691678946,1.0,1.0,39551985.179126285
3200,0.3012048030696976,4.724740936151227,1.0,1.0,41158775.50953685
3300,0.3011697783558038,4.724813874596906,1.0,1.0,42789439.62797951
3400,0.30113562942348865,4.724886784510722,1.0,1.0,44444050.67994999
3500,0.3011023580361663,4.724959665898305,1.0,1.0,46122677.34765468
3600,0.3010699659583125,4.72503251876512,1.0,1.0,47825383.99012624
3700,0.3010384549554683,4.725105343116475,1.0,1.0,49552230.77751881
3800,0.3010078267942441,4.725178138957516,1.0,1.0,51303273.81981883
3900,0.3009780832423223,4.725250906293232,1.0,1.0,53078565.29019976
4000,0.30094922606846025,4.725323645128455,1.0,1.0,54878153.54324277
4100,0.3009212570424929,4.725396355467859,1.0,1.0,56702083.22824445
4200,0.30089417793533463,4.725469037315963,1.0,1.0,58550395.397828676
4300,0.300867990518981,4.725541690677134,1.0,1.0,60423127.61206543
4400,0.30084269656651,4.725614315555584,1.0,1.0,62320314.03829446
4500,0.3008182978520831,4.725686911955371,1.0,1.0,64241985.54685989
4600,0.3007947961509452,4.725759479880405,1.0,1.0,66188169.802926525
4700,0.3007721932394251,4.725832019334443,1.0,1.0,68158891.35456534
4800,0.3007504908949353,4.725904530321093,1.0,1.0,70154171.71728086
4900,0.3007296908959701,4.725977012843813,1.0,1.0,72174029.45514417
5000,0.30070979502210554,4.726049466905916,1.0,1.0,74218480.2586875
5100,0.30069080505399653,4.726121892510564,1.0,1.0,76287537.0197103
5200,0.3006727227733752,4.726194289660776,1.0,1.0,78381209.90314654
5300,0.3006555499630477,4.726266658359422,1.0,1.0,80499506.41612665
5400,0.3006392884068912,4.72633899860923,1.0,1.0,82642431.47436576
5500,0.30062393988984965,4.726411310412783,1.0,1.0,84809987.4660059
5600,0.30060950619792964,4.726483593772521,1.0,1.0,87002174.31302834
5700,0.3005959891181955,4.726555848690741,1.0,1.0,89218989.53035328
5800,0.3005833904387635,4.726628075169599,1.0,1.0,91460428.28273019
5900,0.3005717119487956,4.726700273211109,1.0,1.0,93726483.43953152
6000,0.3005609554384935,4.726772442817145,1.0,1.0,96017145.62753396
6100,0.30055112269909007,4.726844583989442,1.0,1.0,98332403.28179505
6200,0.3005422155228423,4.726916696729596,1.0,1.0,100672242.69470188
6300,0.3005342357030223,4.726988781039064,1.0,1.0,103036648.0632867
6400,0.3005271850339075,4.727060836919167,1.0,1.0,105425601.5348799
6500,0.3005210653107713,4.727132864371088,1.0,1.0,107839083.25118543
6600,0.3005158783298716,4.727204863395873,1.0,1.0,110277071.39084499
6700,0.30051162588843955,4.727276833994437,1.0,1.0,112739542.2105625
6800,0.30050830978466714,4.727348776167554,1.0,1.0,115226470.08485807
6900,0.3005059318176943,4.72742068991587,1.0,1.0,117737827.54450771
7000,0.30050449378759425,4.727492575239892,1.0,1.0,120273585.31372942
7100,0.3005039974953593,4.7275644321399986,1.0,1.0,122833712.34617832
7200,0.30050444474288474,4.727636260616435,1.0,1.0,125418175.85979454
7300,0.30050583733295255,4.727708060669313,1.0,1.0,128026941.37056522
7400,0.30050817706921357,4.727779832298617,1.0,1.0,130659972.72524045
7500,0.30051146575616905,4.727851575504197,1.0,1.0,133317232.13305676
7600,0.3005157051991508,4.727923290285779,1.0,1.0,135998680.19650403
7700,0.30052089720430136,4.727994976642955,1.0,1.0,138704275.94118813
7800,0.3005270435785511,4.728066634575191,1.0,1.0,141433976.8448151
7900,0.3005341461295956,4.728138264081825,1.0,1.0,144187738.86535302
8000,0.3005449570250558,4.728209865162069,1.0,1.0,146965516.4679015
8100,0.30056032845024416,4.728281437815006,1.0,1.0,149767262.65211192
8200,0.30058024215042634,4.728352982039596,1.0,1.0,152592928.97787148
8300,0.3006046800662893,4.728424497834673,1.0,1.0,155442465.59032518
8400,0.3006336243320156,4.728495985198944,1.0,1.0,158315821.24437663
8500,0.3006670572733761,4.728567444130996,1.0,1.0,161212943.3285505
8600,0.3007049614058469,4.728638874629289,1.0,1.0,164133777.8882405
8700,0.30074731943274163,4.728710276692162,1.0,1.0,167078269.64836612
8800,0.30079411424336805,4.728781650317832,1.0,1.0,170046362.03547508
8900,0.30084532891120264,4.728852995504393,1.0,1.0,173037997.1992987
9000,0.3009009466920841,4.72892431224982,1.0,1.0,176053116.03379175
9100,0.3009609510224271,4.728995600551965,1.0,1.0,179091658.19767302
9200,0.3010253255174555,4.729066860408562,1.0,1.0,182153562.13449538
9300,0.3010940539694531,4.729138091817224,1.0,1.0,185238765.09225318
9400,0.301167120346034,4.729209294775448,1.0,1.0,188347203.14255446
9500,0.3012445087884311,4.729280469280609,1.0,1.0,191478811.1993707
9600,0.3013262036098025,4.729351615329969,1.0,1.0,194633523.03738448
9700,0.3014121892935561,4.729422732920668,1.0,1.0,197811271.30994174
9800,0.3015024504916918,4.729493822049733,1.0,1.0,201011987.56664363
9900,0.3015969720231609,4.729564882714074,1.0,1.0,204235602.2705632
10000,0.30169573887224355,4.729635914910486,1.0,1.0,207482044.81513527
10100,0.30179873618694225,4.729706918635649,1.0,1.0,210751243.54070225
10200,0.3019059492773931,4.729777893886127,1.0,1.0,214043125.75074765
10300,0.30201736361429293,4.729848840658374,1.0,1.0,217357617.72782254
10400,0.3021329648273436,4.729919758948727,1.0,1.0,220694644.74917424
10500,0.3022527387037118,4.729990648753412,1.0,1.0,224054131.1020939
10600,0.3023766711865055,4.730061510068543,1.0,1.0,227436000.09899032
10700,0.3025047483732662,4.730132342890124,1.0,1.0,230840174.09220266
10800,0.30263695651447603,4.730203147214044,1.0,1.0,234266574.4885595
10900,0.30277328201208176,4.730273923036085,1.0,1.0,237715121.763693
11000,0.30291371141803264,4.7303446703519185,1.0,1.0,241185735.476118
11100,0.30305823143283417,4.7304153891571055,1.0,1.0,244678334.28108364
11200,0.3032068289041167,4.730486079447099,1.0,1.0,248192835.94421044
11300,0.3033594908252185,4.730556741217242,1.0,1.0,251729157.35491547
11400,0.3035162043337837,4.730627374462773,1.0,1.0,255287214.53963086
11500,0.30367695671037415,4.730697979178819,1.0,1.0,258866922.67483073
11600,0.303841735377096,4.730768555360403,1.0,1.0,262468196.0998691
11700,0.3040105278962402,4.730839103002442,1.0,1.0,266090948.32963
11800,0.30418332196893655,4.730909622099745,1.0,1.0,269735092.0670065
11900,0.30436010543382164,4.730980112647017,1.0,1.0,273400539.2152078
12000,0.3045408662657207,4.731050574638858,1.0,1.0,277087200.8899027
12100,0.3047255925743422,4.731121008069764,1.0,1.0,280794987.43120164
12200,0.3049142726029859,4.731191412934129,1.0,1.0,284523808.4154851
12300,0.30510689472726443,4.731261789226239,1.0,1.0,288273572.6670889
12400,0.3053034474538368,4.731332136940281,1.0,1.0,292044188.2698368
12500,0.30550391941915567,4.73140245607034,1.0,1.0,295835562.5784373
12600,0.3057082993882266,4.731472746610397,1.0,1.0,299647602.2297524
12700,0.3059165762533798,4.731543008554333,1.0,1.0,303480213.1539242
12800,0.3061287390330547,4.731613241895927,1.0,1.0,307333300.58538276
12900,0.30634477687059575,4.7316834466288595,1.0,1.0,311206769.0737294
13000,0.30656467903306117,4.731753622746711,1.0,1.0,315100522.49449915
13100,0.30678843491004304,4.731823770242962,1.0,1.0,319014464.05981314
13200,0.30701603401249916,4.731893889110993,1.0,1.0,322948496.3289131
13300,0.3072474659715967,4.731963979344088,1.0,1.0,326902521.2185922
13400,0.30748272053756703,4.7320340409354325,1.0,1.0,330876440.0135161
13500,0.30772178757857216,4.732104073878114,1.0,1.0,334870153.3764443
13600,0.3079646570795821,4.732174078165124,1.0,1.0,338883561.3583531
13700,0.3082113191412636,4.732244053789357,1.0,1.0,342916563.4084629
13800,0.3084617639788793,4.73231400074361,1.0,1.0,346969058.3841645
13900,0.30871598192119837,4.732383919020588,1.0,1.0,351040944.5608646
14000,0.30897396340941696,4.732453808612898,1.0,1.0,355132119.6417302
14100,0.3092356989960901,4.732523669513053,1.0,1.0,359242480.7673609
14200,0.3095011793440733,4.732593501713471,1.0,1.0,363371924.5253658
14300,0.30977039522547484,4.732663305206479,1.0,1.0,367520346.9598581
14400,0.3100433375206181,4.732733079984308,1.0,1.0,371687643.5808803
14500,0.31031999721701387,4.732802826039096,1.0,1.0,375873709.3737401
14600,0.3106003654083429,4.732872543362892,1.0,1.0,380078438.80827636
14700,0.3108844332934479,4.732942231947649,1.0,1.0,384301725.84804744
14800,0.3111721921753354,4.733011891785231,1.0,1.0,388543463.95945144
14900,0.3114636334601874,4.73308152286741,1.0,1.0,392803546.1207718
15000,0.31175874865638203,4.733151125185867,1.0,1.0,397081864.83115345
15100,0.3120575293735241,4.733220698732195,1.0,1.0,401378312.11951447
15200,0.3123599673214847,4.733290243497894,1.0,1.0,405692779.55339044
15300,0.3126660543094497,4.733359759474378,1.0,1.0,410025158.24771166
15400,0.31297578224497785,4.733429246652968,1.0,1.0,414375338.8735206
15500,0.31328914313306727,4.7334987050249016,1.0,1.0,418743211.6666235
15600,0.31360612907523105,4.733568134581324,1.0,1.0,423128666.4361877
15700,0.3139267322685818,4.733637535313295,1.0,1.0,427531592.5732708
15800,0.3142509450049242,4.733706907211787,1.0,1.0,431951879.05929697
15900,0.31457875966985677,4.733776250267686,1.0,1.0,436389414.4744742
16000,0.3149101687418817,4.733845564471791,1.0,1.0,440844087.0061565
16100,0.3152451647915232,4.733914849814813,1.0,1.0,445315784.4571503
16200,0.31558374048045373,4.733984106287381,1.0,1.0,449804394.2539648
16300,0.3159258885606289,4.734053333880038,1.0,1.0,454309803.4550117
16400,0.31627160187343023,4.734122532583241,1.0,1.0,458831898.7587512
16500,0.31662087334881545,4.734191702387363,1.0,1.0,463370566.5117831
16600,0.3169736960044774,4.734260843282694,1.0,1.0,467925692.7168949
16700,0.31733006294501015,4.73432995525944,1.0,1.0,472497163.04105324
16800,0.3176899673610831,4.734399038307724,1.0,1.0,477084862.8233467
16900,0.3180534025286226,4.734468092417585,1.0,1.0,481688677.0828812
17000,0.3184203618080008,4.7345371175789825,1.0,1.0,486308490.52663064
17100,0.31879083864323265,4.734606113781791,1.0,1.0,490944187.55723405
17200,0.3191648265611794,4.734675081015807,1.0,1.0,495595652.2807472
17300,0.31954231917075987,4.734744019270741,1.0,1.0,500262768.51435727
17400,0.31992331016216885,4.734812928536226,1.0,1.0,504945419.79403913
17500,0.3203077933061024,4.734881808801815,1.0,1.0,509643489.38217187
17600,0.32069576245299036,4.73495066005698,1.0,1.0,514356860.275113
17700,0.32108721153223574,4.735019482291113,1.0,1.0,519085415.2107269
17800,0.3214821345514608,4.735088275493527,1.0,1.0,523829036.6758708
17900,0.32188052559576014,4.735157039653456,1.0,1.0,528587606.9138347
18000,0.3222823788269603,4.735225774760056,1.0,1.0,533361007.93174106
18100,0.32268768848288626,4.735294480802405,1.0,1.0,538149121.5079011
18200,0.323096448876634,4.735363157769502,1.0,1.0,542951829.1991315
18300,0.32350865439585025,4.73543180565027,1.0,1.0,547769012.3480273
18400,0.3239242995020177,4.735500424433555,1.0,1.0,552600552.0901939
18500,0.3243433787297474,4.735569014108124,1.0,1.0,557446329.3614386
18600,0.32476588668607703,4.735637574662672,1.0,1.0,562306224.9049219
18700,0.32519181804977537,4.7357061060858126,1.0,1.0,567180119.2782679
18800,0.3256211675706528,4.735774608366087,1.0,1.0,572067892.8606343
18900,0.32605393006887806,4.7358430814919625,1.0,1.0,576969425.8597442
19000,0.3264901004343009,4.7359115254518285,1.0,1.0,581884598.3188796
19100,0.3269296736257804,4.735979940234,1.0,1.0,586813290.1238309
19200,0.32737264467051974,4.736048325826721,1.0,1.0,591755381.009811
19300,0.327819008663406,4.736116682218158,1.0,1.0,596710750.56833
19400,0.3282687607663562,4.736185009396406,1.0,1.0,601679278.2540329
19500,0.3287218962076687,4.736253307349486,1.0,1.0,606660843.3914942
19600,0.3291784102813804,4.736321576065345,1.0,1.0,611655325.1819798
19700,0.3296382983466294,4.73638981553186,1.0,1.0,616662602.7101672
19800,0.3301015558270229,4.736458025736835,1.0,1.0,621682554.9508291
19900,0.3305681782100108,4.7365262066680005,1.0,1.0,626715060.7754809
20000,0.33103816104626455,4.736594358313018,1.0,1.0,631759998.9589854
20100,0.33151149994906115,4.736662480659475,1.0,1.0,636817248.1861237
20200,0.33198819059367257,4.73673057369489,1.0,1.0,641886687.0581313
20300,0.3324682287167601,4.736798637406712,1.0,1.0,646968194.0991905
20400,0.33295161011577384,4.736866671782316,1.0,1.0,652061647.7628907
20500,0.3334383306483578,4.73693467680901,1.0,1.0,657166926.4386511
20600,0.33392838623175897,4.7370026524740325,1.0,1.0,662283908.4581023
20700,0.33442177284224206,4.737070598764551,1.0,1.0,667412472.1014366
20800,0.33491848651450906,4.737138515667665,1.0,1.0,672552495.6037182
20900,0.3354185233411234,4.737206403170405,1.0,1.0,677703857.1611574
21000,0.33592187947193874,4.737274261259734,1.0,1.0,682866434.9373477
21100,0.33642855111353326,4.737342089922547,1.0,1.0,688040107.0694659
21200,0.33693853452864764,4.737409889145669,1.0,1.0,693224751.6744361
21300,0.3374518260356281,4.737477658915859,1.0,1.0,698420246.8550577
21400,0.33796842200787436,4.737545399219809,1.0,1.0,703626470.7060963
21500,0.3384883188732913,4.737613110044145,1.0,1.0,708843301.3203382
21600,0.3390115131137458,4.737680791375424,1.0,1.0,714070616.7946068
21700,0.33953800126452766,4.737748443200139,1.0,1.0,719308295.2357466
21800,0.3400677799138151,4.737816065504716,1.0,1.0,724556214.7665675
21900,0.3406008457021442,4.737883658275515,1.0,1.0,729814253.5317513
22000,0.34113719532188314,4.7379512214988315,1.0,1.0,735082289.7037259
22100,0.34167682551671,4.738018755160895,1.0,1.0,740360201.4885026
22200,0.34221973308109555,4.73808625924787,1.0,1.0,745647867.1314726
22300,0.34276591485978936,4.738153733745858,1.0,1.0,750945164.9231721
22400,0.34331536774731064,4.738221178640895,1.0,1.0,756251973.2050083
22500,0.34386808868744284,4.738288593918953,1.0,1.0,761568170.3749498
22600,0.3444240746727321,4.73835597956594,1.0,1.0,766893634.8931826
22700,0.34498332274399,4.738423335567701,1.0,1.0,772228245.2877241
22800,0.34554582998980005,4.738490661910017,1.0,1.0,777571880.160006
22900,0.34611159354602794,4.738557958578608,1.0,1.0,782924418.1904217
23000,0.3466806105953359,4.738625225559129,1.0,1.0,788285738.1438295
23100,0.34725287836670055,4.738692462837174,1.0,1.0,793655718.8750287
23200,0.34782839413493466,4.7387596703982755,1.0,1.0,799034239.3341959
23300,0.3484071552202127,4.738826848227902,1.0,1.0,804421178.5722805
23400,0.3489891589875998,4.738893996311462,1.0,1.0,809816415.7463696
23500,0.3495744028465846,4.738961114634302,1.0,1.0,815219830.1250125
23600,0.3501628842506154,4.739028203181707,1.0,1.0,820631301.0935125
23700,0.3507546006966404,4.739095261938903,1.0,1.0,826050708.15918
23800,0.3513495497246506,4.739162290891054,1.0,1.0,831477930.956548
23900,0.35194772891722703,4.739229290023262,1.0,1.0,836912849.2525512
24000,0.35254913589909087,4.739296259320572,1.0,1.0,842355342.9516703
24100,0.3531537683366573,4.7393631987679665,1.0,1.0,847805292.1010411
24200,0.3537616239375923,4.739430108350372,1.0,1.0,853262576.89552
24300,0.35437270045037345,4.739496988052651,1.0,1.0,858727077.6827217
24400,0.35498699566385317,4.7395638378596106,1.0,1.0,864198674.9680123
24500,0.35560450740682603,4.739630657755996,1.0,1.0,869677249.4194714
24600,0.3562252335475986,4.739697447726496,1.0,1.0,875162681.872814
24700,0.3568491719935632,4.739764207755741,1.0,1.0,880654853.3362797
24800,0.35747632069077406,4.739830937828301,1.0,1.0,886153644.9954783
24900,0.35810667762352716,4.7398976379286895,1.0,1.0,891658938.2182065
25000,0.3587402408139429,4.739964308041363,1.0,1.0,897170614.5592235
25100,0.3593770083215519,4.740030948150718,1.0,1.0,902688555.764986
25200,0.36001697824288387,4.7400975582410965,1.0,1.0,908212643.7783536
25300,0.36066014871105934,4.740164138296782,1.0,1.0,913742760.743254
25400,0.3613065178953844,4.740230688302002,1.0,1.0,919278789.0093117
25500,0.3619560840009487,4.740297208240925,1.0,1.0,924820611.1364362
25600,0.3626088452682256,4.740363698097666,1.0,1.0,930368109.8993807
25700,0.3632647999726762,4.7404301578562835,1.0,1.0,935921168.2922566
25800,0.3639239464243551,4.740496587500778,1.0,1.0,941479669.533013
25900,0.3645862829675201,4.740562987015095,1.0,1.0,947043497.067884
26000,0.36525180798024365,4.740629356383125,1.0,1.0,952612534.5757906
26100,0.3659205198740278,4.740695695588703,1.0,1.0,958186665.9727104
26200,0.3665924170934216,4.7407620046156085,1.0,1.0,963765775.4160113
26300,0.3672674981156412,4.740828283447566,1.0,1.0,969349747.3087451
26400,0.3679457614501925,4.740894532068246,1.0,1.0,974938466.3039052
26500,0.3686272056384967,4.740960750461264,1.0,1.0,980531817.3086491
26600,0.3693118292535185,4.74102693861018,1.0,1.0,986129685.488475
26700,0.3699996308993964,4.741093096498503,1.0,1.0,991731956.2713767
26800,0.3706906092110761,4.741159224109683,1.0,1.0,997338515.3519472
26900,0.37138476285394634,4.741225321427121,1.0,1.0,1002949248.6954513
27000,0.3720820905234769,4.7412913884341625,1.0,1.0,1008564042.5418622
27100,0.3727825909448596,4.741357425114099,1.0,1.0,1014182783.4098563
27200,0.3734862628726514,4.741423431450171,1.0,1.0,1019805358.1007744
27300,0.3741931050904201,4.741489407425562,1.0,1.0,1025431653.7025421
27400,0.37490311641039226,4.741555353023407,1.0,1.0,1031061557.5935599
27500,0.37561629567310395,4.741621268226785,1.0,1.0,1036694957.4465464
27600,0.3763326417470532,4.7416871530187255,1.0,1.0,1042331741.2323542
27700,0.3770521535283555,4.741753007382203,1.0,1.0,1047971797.2237419
27800,0.3777748299404012,4.741818831300143,1.0,1.0,1053615013.9991089
27900,0.37850066993351505,4.741884624755414,1.0,1.0,1059261280.4461961
28000,0.3792296724846187,4.741950387730839,1.0,1.0,1064910485.7657502
28100,0.37996183659689475,4.7420161202091835,1.0,1.0,1070562519.4751449
28200,0.38069716129945325,4.742081822173167,1.0,1.0,1076217271.4119718
