Timestep (s),Sum Voltage (V),Carry Out Voltage (V),Sum Error Rate (Dimless),Carry Out Error Rate (Dimless),Energy Dissipation (J)
0,0.00022681358649718133,9.999999427186426,1.0,1.0,4.157318433791009e-17
5000,0.00045319882321442234,9.99999885437407,1.0,1.0,4.6432480257948173e-17
10000,0.0006791519845431487,9.999998281563977,1.0,1.0,4.971583506513757e-17
15000,0.0009048323414845408,9.999997708757176,1.0,1.0,5.220566021233502e-17
20000,0.001130394192759634,9.999997135954679,1.0,1.0,5.421506721411539e-17
25000,0.0013559871928354034,9.99999656315748,1.0,1.0,5.590221490125108e-17
30000,0.0015817566601909424,9.999995990366555,1.0,1.0,5.735834655614136e-17
35000,0.00180784386720589,9.999995417582866,1.0,1.0,5.864092112556206e-17
40000,0.0020343863129481375,9.999994844807357,1.0,1.0,5.978846125087882e-17
45000,0.0022615179800404162,9.999994272040958,1.0,1.0,6.082804267429623e-17
50000,0.0024893695766969896,9.999993699284579,1.0,1.0,6.177941230277125e-17
55000,0.0027180687649487724,9.999993126539117,1.0,1.0,6.265740729052416e-17
60000,0.0029477403759864108,9.999992553805454,1.0,1.0,6.3473452625504e-17
65000,0.0031785066134969995,9.999991981084458,1.0,1.0,6.423652872657706e-17
70000,0.0034104872457977956,9.999991408376978,1.0,1.0,6.495381923380359e-17
75000,0.003643799787516677,9.999990835683853,1.0,1.0,6.563115792719644e-17
80000,0.0038785596715129552,9.999990263005905,1.0,1.0,6.627334511188029e-17
85000,0.004114880411683557,9.999989690343943,1.0,1.0,6.688437665865792e-17
90000,0.004352873757256499,9.999989117698762,1.0,1.0,6.746761309284126e-17
95000,0.004592649839125342,9.999988545071142,1.0,1.0,6.802590660301728e-17
100000,0.004834317308748504,9.999987972461852,1.0,1.0,6.856169792320545e-17
105000,0.005077983470089826,9.999987399871646,1.0,1.0,6.907709126204492e-17
110000,0.005323754405055254,9.999986827301264,1.0,1.0,6.957391297947942e-17
115000,0.005571735092840504,9.999986254751434,1.0,1.0,7.005375805745782e-17
120000,0.0058220295235828085,9.999985682222874,1.0,1.0,7.051802728393293e-17
125000,0.006074740806676962,9.999985109716286,1.0,1.0,7.096795728674668e-17
130000,0.006329971274096829,9.999984537232363,1.0,1.0,7.140464500254543e-17
135000,0.00658782257904181,9.999983964771783,1.0,1.0,7.182906777112843e-17
140000,0.006848395790197212,9.999983392335213,1.0,1.0,7.224209995873498e-17
145000,0.007111791481889701,9.99998281992331,1.0,1.0,7.264452680416116e-17
150000,0.007378109820393135,9.99998224753672,1.0,1.0,7.303705602479835e-17
155000,0.007647450646628001,9.999981675176072,1.0,1.0,7.342032760286182e-17
160000,0.007919913555476487,9.99998110284199,1.0,1.0,7.379492208253634e-17
165000,0.008195597971928686,9.999980530535085,1.0,1.0,7.416136764146331e-17
170000,0.008474603224251025,9.999979958255958,1.0,1.0,7.45201461466538e-17
175000,0.008757028614368353,9.999979386005199,1.0,1.0,7.487169836461917e-17
180000,0.009042973485628004,9.999978813783386,1.0,1.0,7.521642846305104e-17
185000,0.009332537288107717,9.99997824159109,1.0,1.0,7.55547079162779e-17
190000,0.009625819641623942,9.999977669428871,1.0,1.0,7.588687890645309e-17
195000,0.009922920396576933,9.999977097297277,1.0,1.0,7.621325729644408e-17
200000,0.010223939692769222,9.999976525196848,1.0,1.0,7.653413523730085e-17
205000,0.010528978016323907,9.999975953128114,1.0,1.0,7.684978346263837e-17
210000,0.010838136254816715,9.999975381091597,1.0,1.0,7.716045331405123e-17
215000,0.011151515750734666,9.999974809087806,1.0,1.0,7.746637853408602e-17
220000,0.011469218353364397,9.999974237117245,1.0,1.0,7.776777685822784e-17
225000,0.011791346469207598,9.999973665180407,1.0,1.0,7.806485143208001e-17
230000,0.012118003111014781,9.999973093277777,1.0,1.0,7.835779207630719e-17
235000,0.01244929194551972,9.999972521409832,1.0,1.0,7.864677641829737e-17
240000,0.012785317339962408,9.99997194957704,1.0,1.0,7.893197090724399e-17
245000,0.01312618440746932,9.999971377779858,1.0,1.0,7.921353172640826e-17
250000,0.013471999051367025,9.999970806018737,1.0,1.0,7.949160561505016e-17
255000,0.013822868008491803,9.999970234294121,1.0,1.0,7.976633061036121e-17
260000,0.014178898891562047,9.999969662606444,1.0,1.0,8.003783671849835e-17
265000,0.014540200230672767,9.999969090956133,1.0,1.0,8.030624652279165e-17
270000,0.014906881513961518,9.999968519343607,1.0,1.0,8.057167573587635e-17
275000,0.015279053227506736,9.999967947769278,1.0,1.0,8.083423370197637e-17
280000,0.015656826894501166,9.99996737623355,1.0,1.0,8.109402385445415e-17
285000,0.01604031511375011,9.999966804736822,1.0,1.0,8.135114413345638e-17
290000,0.0164296315975365,9.99996623327948,1.0,1.0,8.160568736768359e-17
295000,0.01682489120889179,9.999965661861909,1.0,1.0,8.18577416238202e-17
300000,0.017226209998317546,9.999965090484483,1.0,1.0,8.210739052699529e-17
305000,0.017633705239984938,9.999964519147573,1.0,1.0,8.235471355505112e-17
310000,0.018047495467450242,9.999963947851539,1.0,1.0,8.259978630900366e-17
315000,0.018467700508920774,9.999963376596737,1.0,1.0,8.284268076216835e-17
320000,0.018894441522093575,9.999962805383515,1.0,1.0,8.308346548981277e-17
325000,0.019327841028602535,9.999962234212216,1.0,1.0,8.332220588110861e-17
330000,0.019768022948093957,9.999961663083175,1.0,1.0,8.355896433502969e-17
335000,0.02021511263195903,9.999961091996722,1.0,1.0,8.379380044170151e-17
340000,0.020669236896742646,9.99996052095318,1.0,1.0,8.402677115032136e-17
345000,0.021130524057251316,9.999959949952869,1.0,1.0,8.425793092491336e-17
350000,0.021599103959377818,9.999959378996099,1.0,1.0,8.44873318889647e-17
355000,0.022075108012665087,9.999958808083175,1.0,1.0,8.471502395981783e-17
360000,0.022558669222622178,9.999958237214399,1.0,1.0,8.494105497375372e-17
365000,0.02304992222281115,9.999957666390063,1.0,1.0,8.516547080249774e-17
370000,0.023549003306711204,9.999957095610458,1.0,1.0,8.538831546174095e-17
375000,0.024056050459387662,9.999956524875868,1.0,1.0,8.560963121251977e-17
380000,0.024571203388962865,9.99995595418657,1.0,1.0,8.582945865584748e-17
385000,0.025094603557909583,9.999955383542835,1.0,1.0,8.604783682112066e-17
390000,0.025626394214176458,9.999954812944933,1.0,1.0,8.626480324900048e-17
395000,0.026166720422144497,9.999954242393127,1.0,1.0,8.648039406887761e-17
400000,0.026715729093435316,9.999953671887672,1.0,1.0,8.669464407150578e-17
405000,0.02727356901757175,9.999953101428822,1.0,1.0,8.690758677718516e-17
410000,0.02784039089249585,9.999952531016826,1.0,1.0,8.7119254499766e-17
415000,0.02841634735495169,9.999951960651924,1.0,1.0,8.732967840669199e-17
420000,0.02900159301073743,9.999951390334356,1.0,1.0,8.753888857558815e-17
425000,0.029596284464827052,9.999950820064356,1.0,1.0,8.774691404735705e-17
430000,0.03020058035136896,9.999950249842152,1.0,1.0,8.795378287632398e-17
435000,0.030814641363558652,9.999949679667969,1.0,1.0,8.815952217734425e-17
440000,0.03143863028339019,9.999949109542026,1.0,1.0,8.836415817030582e-17
445000,0.03207271201128231,9.99994853946454,1.0,1.0,8.856771622212871e-17
450000,0.03271705359558308,9.999947969435723,1.0,1.0,8.877022088632757e-17
455000,0.03337182426194929,9.999947399455783,1.0,1.0,8.897169594055166e-17
460000,0.03403719544259713,9.999946829524923,1.0,1.0,8.917216442183977e-17
465000,0.03471334080542781,9.999946259643341,1.0,1.0,8.937164866022262e-17
470000,0.03540043628301291,9.999945689811234,1.0,1.0,8.95701703103271e-17
475000,0.03609866010144874,9.999945120028793,1.0,1.0,8.976775038142857e-17
480000,0.036808192809064215,9.999944550296204,1.0,1.0,8.996440926590138e-17
485000,0.03752921730498042,9.999943980613653,1.0,1.0,9.016016676612997e-17
490000,0.03826191886751796,9.999943410981318,1.0,1.0,9.035504212016303e-17
495000,0.039006485182441014,9.999942841399378,1.0,1.0,9.05490540259608e-17
500000,0.039763106371029686,9.999942271868003,1.0,1.0,9.07422206644177e-17
505000,0.04053197501798095,9.999941702387362,1.0,1.0,9.093455972134664e-17
510000,0.041313286199114695,9.999941132957623,1.0,1.0,9.112608840828047e-17
515000,0.042107237508888624,9.999940563578948,1.0,1.0,9.131682348229653e-17
520000,0.04291402908770265,9.999939994251495,1.0,1.0,9.150678126482681e-17
525000,0.04373386364898695,9.99993942497542,1.0,1.0,9.16959776596638e-17
530000,0.04456694650605841,9.999938855750875,1.0,1.0,9.188442817007956e-17
535000,0.04541348559873311,9.99993828657801,1.0,1.0,9.20721479150709e-17
540000,0.04627369151968687,9.99993771745697,1.0,1.0,9.22591516449044e-17
545000,0.047147777540540635,9.999937148387898,1.0,1.0,9.244545375598884e-17
550000,0.04803595963766573,9.999936579370935,1.0,1.0,9.263106830495789e-17
555000,0.0489384565176864,9.999936010406218,1.0,1.0,9.281600902220703e-17
560000,0.049855489642667186,9.99993544149388,1.0,1.0,9.300028932475626e-17
565000,0.05078728325497171,9.999934872634052,1.0,1.0,9.318392232859194e-17
570000,0.05173406440176846,9.999934303826862,1.0,1.0,9.336692086042954e-17
575000,0.05269606295916771,9.999933735072435,1.0,1.0,9.354929746896709e-17
580000,0.05367351165597989,9.999933166370894,1.0,1.0,9.37310644356322e-17
585000,0.054666646097058715,9.99993259772236,1.0,1.0,9.391223378493813e-17
590000,0.0556757047862278,9.99993202912695,1.0,1.0,9.409281729427912e-17
595000,0.05670092914875297,9.999931460584776,1.0,1.0,9.427282650339954e-17
600000,0.057742563553359376,9.999930892095952,1.0,1.0,9.445227272347155e-17
605000,0.058800855333745815,9.999930323660587,1.0,1.0,9.463116704565479e-17
610000,0.05987605480959483,9.999929755278789,1.0,1.0,9.480952034948126e-17
615000,0.06096841530704546,9.999929186950661,1.0,1.0,9.498734331079876e-17
620000,0.062078193178609735,9.999928618676305,1.0,1.0,9.516464640933733e-17
625000,0.06320564782250047,9.999928050455821,1.0,1.0,9.534143993615052e-17
630000,0.06435104170134896,9.999927482289309,1.0,1.0,9.551773400049874e-17
635000,0.06551464036028838,9.999926914176859,1.0,1.0,9.569353853665258e-17
640000,0.06669671244438177,9.999926346118567,1.0,1.0,9.586886331036576e-17
645000,0.06789752971534654,9.999925778114523,1.0,1.0,9.604371792506017e-17
650000,0.0691173670675688,9.999925210164815,1.0,1.0,9.62181118277863e-17
655000,0.07035650254337182,9.999924642269528,1.0,1.0,9.63920543149348e-17
660000,0.07161521734750362,9.999924074428748,1.0,1.0,9.656554473328417e-17
665000,0.07289379370535888,9.999923506642556,1.0,1.0,9.673860184246135e-17
670000,0.07419251911403384,9.999922938911032,1.0,1.0,9.691123451899749e-17
675000,0.07551168426966592,9.999922371234254,1.0,1.0,9.708345150945109e-17
680000,0.07685158307848379,9.999921803612297,1.0,1.0,9.725526143516115e-17
685000,0.07821251266692404,9.999921236045235,1.0,1.0,9.74266727966841e-17
690000,0.07959477339078247,9.999920668533141,1.0,1.0,9.759769397816724e-17
695000,0.08099866884336497,9.999920101076086,1.0,1.0,9.776833325149081e-17
700000,0.0824245058626045,9.999919533674136,1.0,1.0,9.793859878024867e-17
705000,0.08387259453710925,9.999918966327359,1.0,1.0,9.810849862360982e-17
710000,0.08534324821110645,9.999918399035817,1.0,1.0,9.827804074000965e-17
715000,0.0868367834882454,9.999917831799575,1.0,1.0,9.844723299069134e-17
720000,0.08835352023422578,9.999917264618695,1.0,1.0,9.861608314309476e-17
725000,0.0898937815782101,9.999916697493234,1.0,1.0,9.878459887416001e-17
730000,0.09145789391298613,9.99991613042325,1.0,1.0,9.895278777347025e-17
735000,0.09304618689384196,9.9999155634088,1.0,1.0,9.912065734625137e-17
740000,0.09465899343611284,9.999914996449938,1.0,1.0,9.928821501629373e-17
745000,0.09629664971136329,9.999914429546717,1.0,1.0,9.945546812872601e-17
750000,0.09795949514216468,9.999913862699188,1.0,1.0,9.962242395270122e-17
755000,0.09964787239542994,9.999913295907401,1.0,1.0,9.978908968396754e-17
760000,0.1013621273742647,9.999912729171403,1.0,1.0,9.995547244730232e-17
765000,0.1031026092082961,9.99991216249124,1.0,1.0,1.0012157929887816e-16
770000,0.10486967024243818,9.999911595866958,1.0,1.0,1.0028741722853457e-16
775000,0.10666366602405442,9.999911029298602,1.0,1.0,1.0045299316192272e-16
780000,0.10848495528847772,9.999910462786211,1.0,1.0,1.0061831396261171e-16
785000,0.11033389994284558,9.999909896329829,1.0,1.0,1.0078338643403479e-16
790000,0.1122108650482111,9.999909329929492,1.0,1.0,1.0094821732139343e-16
795000,0.11411621879988965,9.99990876358524,1.0,1.0,1.0111281331345275e-16
800000,0.11605033250600018,9.999908197297112,1.0,1.0,1.0127718104431198e-16
805000,0.1180135805641594,9.999907631065138,1.0,1.0,1.0144132709497454e-16
810000,0.12000634043629149,9.999907064889356,1.0,1.0,1.0160525799498325e-16
815000,0.12202899262151072,9.999906498769796,1.0,1.0,1.0176898022387323e-16
820000,0.12408192062703839,9.999905932706492,1.0,1.0,1.0193250021259357e-16
825000,0.12616551093711292,9.99990536669947,1.0,1.0,1.020958243448181e-16
830000,0.12828015297985668,9.999904800748764,1.0,1.0,1.0225895895830005e-16
835000,0.13042623909205786,9.9999042348544,1.0,1.0,1.0242191034597527e-16
840000,0.13260416448183013,9.999903669016403,1.0,1.0,1.0258468475715702e-16
845000,0.13481432718911288,9.9999031032348,1.0,1.0,1.0274728839854796e-16
850000,0.13705712804397396,9.999902537509614,1.0,1.0,1.0290972743530196e-16
855000,0.1393329706226785,9.999901971840869,1.0,1.0,1.0307200799190684e-16
860000,0.14164226120148843,9.999901406228584,1.0,1.0,1.0323413615308395e-16
865000,0.14398540870815799,9.999900840672785,1.0,1.0,1.0339611796461008e-16
870000,0.14636282467108855,9.999900275173488,1.0,1.0,1.0355795943401633e-16
875000,0.1487749231661153,9.999899709730713,1.0,1.0,1.0371966653133857e-16
880000,0.15122212076088729,9.999899144344475,1.0,1.0,1.0388124518973505e-16
885000,0.1537048364568133,9.999898579014793,1.0,1.0,1.0404270130605848e-16
890000,0.15622349162854474,9.999898013741683,1.0,1.0,1.0420404074135586e-16
895000,0.15877850996096365,9.999897448525159,1.0,1.0,1.0436526932136236e-16
900000,0.16137031738365243,9.999896883365235,1.0,1.0,1.0452639283691876e-16
905000,0.16399934200281763,9.999896318261923,1.0,1.0,1.0468741704430942e-16
910000,0.16666601403064402,9.999895753215235,1.0,1.0,1.0484834766558254e-16
915000,0.16937076571205684,9.99989518822518,1.0,1.0,1.0500919038879767e-16
920000,0.17211403124887198,9.99989462329177,1.0,1.0,1.0516995086823907e-16
925000,0.17489624672131351,9.999894058415013,1.0,1.0,1.0533063472457122e-16
930000,0.17771785000688334,9.999893493594916,1.0,1.0,1.0549124754491569e-16
935000,0.1805792806965682,9.999892928831487,1.0,1.0,1.0565179488296763e-16
940000,0.18348098000836935,9.999892364124731,1.0,1.0,1.0581228225896586e-16
945000,0.18642339069814517,9.999891799474655,1.0,1.0,1.0597271515965287e-16
950000,0.18940695696775928,9.999891234881263,1.0,1.0,1.0613309903822917e-16
955000,0.19243212437052531,9.999890670344557,1.0,1.0,1.0629343931419304e-16
960000,0.19549933971394814,9.99989010586454,1.0,1.0,1.0645374137319441e-16
965000,0.19860905095975795,9.999889541441217,1.0,1.0,1.06614010566827e-16
970000,0.20176170712123975,9.999888977074585,1.0,1.0,1.0677425221232445e-16
975000,0.20495775815786124,9.999888412764646,1.0,1.0,1.0693447159233894e-16
980000,0.20819765486720826,9.999887848511401,1.0,1.0,1.070946739545377e-16
985000,0.2114818487742356,9.999887284314847,1.0,1.0,1.0725486451124423e-16
990000,0.21481079201784734,9.999886720174981,1.0,1.0,1.0741504843903127e-16
995000,0.2181849372348214,9.999886156091803,1.0,1.0,1.0757523087826675e-16
1000000,0.22160473744109985,9.999885592065308,1.0,1.0,1.0773541693261513e-16
1005000,0.22507064591046344,9.999885028095491,1.0,1.0,1.0789561166847549e-16
1010000,0.22858311605061787,9.99988446418235,1.0,1.0,1.0805582011447199e-16
1015000,0.23214260127672295,9.999883900325877,1.0,1.0,1.0821604726081164e-16
1020000,0.23574955488239127,9.999883336526064,1.0,1.0,1.0837629805862765e-16
1025000,0.2394044299081981,9.999882772782907,1.0,1.0,1.0853657741937775e-16
1030000,0.24310767900773686,9.999882209096398,1.0,1.0,1.0869689021407307e-16
1035000,0.24685975431126692,9.999881645466528,1.0,1.0,1.0885724127259136e-16
1040000,0.25066110728699703,9.999881081893289,1.0,1.0,1.090176353828608e-16
1045000,0.2545121886000564,9.999880518376669,1.0,1.0,1.0917807729010664e-16
1050000,0.2584134479692068,9.999879954916658,1.0,1.0,1.0933857169600406e-16
1055000,0.2623653340213534,9.999879391513247,1.0,1.0,1.0949912325784669e-16
1060000,0.2663682941439151,9.999878828166423,1.0,1.0,1.0965973658764126e-16
1065000,0.27042277433511996,9.999878264876175,1.0,1.0,1.0982041625122544e-16
1070000,0.2745292190522964,9.999877701642488,1.0,1.0,1.0998116676731096e-16
1075000,0.278688071058229,9.999877138465349,1.0,1.0,1.1014199260655979e-16
1080000,0.2828997712656595,9.999876575344745,1.0,1.0,1.1030289819059107e-16
1085000,0.2871647585800129,9.99987601228066,1.0,1.0,1.1046388789097911e-16
1090000,0.29148346974042977,9.999875449273082,1.0,1.0,1.1062496602823186e-16
1095000,0.29585633915919796,9.999874886321992,1.0,1.0,1.1078613687079319e-16
1100000,0.30028379875967115,9.999874323427376,1.0,1.0,1.1094740463393622e-16
1105000,0.3047662778127729,9.999873760589216,1.0,1.0,1.111087734787282e-16
1110000,0.30930420277218407,9.999873197807494,1.0,1.0,1.1127024751091962e-16
1115000,0.3138979971083171,9.999872635082191,1.0,1.0,1.1143183077986502e-16
1120000,0.31854808114118366,9.999872072413291,1.0,1.0,1.1159352727739005e-16
1125000,0.32325487187226565,9.999871509800775,1.0,1.0,1.11755340936674e-16
1130000,0.32801878281550567,9.99987094724462,1.0,1.0,1.1191727563112575e-16
1135000,0.3328402238275286,9.99987038474481,1.0,1.0,1.1207933517322583e-16
1140000,0.3377196009372199,9.99986982230132,1.0,1.0,1.1224152331337392e-16
1145000,0.34265731617478107,9.999869259914133,1.0,1.0,1.1240384373873695e-16
1150000,0.34765376740038995,9.999868697583226,1.0,1.0,1.1256630007211966e-16
1155000,0.3527093481325954,9.999868135308576,1.0,1.0,1.12728895870734e-16
1160000,0.35782444737657765,9.99986757309016,1.0,1.0,1.1289163462506957e-16
1165000,0.36299944945241064,9.999867010927957,1.0,1.0,1.1305451975773427e-16
1170000,0.3682347338234624,9.999866448821942,1.0,1.0,1.1321755462229193e-16
1175000,0.3735306749250757,9.999865886772092,1.0,1.0,1.1338074250206893e-16
1180000,0.37888764199366776,9.999865324778382,1.0,1.0,1.1354408660905916e-16
1185000,0.38430599889639644,9.999864762840787,1.0,1.0,1.1370759008267387e-16
1190000,0.3897861039615382,9.99986420095928,1.0,1.0,1.1387125598868735e-16
1195000,0.3953283098097227,9.999863639133837,1.0,1.0,1.14035087318068e-16
1200000,0.40093296318617827,9.99986307736443,1.0,1.0,1.141990869858505e-16
1205000,0.40660040479413395,9.999862515651035,1.0,1.0,1.1436325783003382e-16
1210000,0.41233096912953404,9.999861953993623,1.0,1.0,1.1452760261047176e-16
1215000,0.41812498431721556,9.999861392392166,1.0,1.0,1.146921240077756e-16
1220000,0.42398277194870004,9.999860830846636,1.0,1.0,1.1485682462227993e-16
1225000,0.42990464692175656,9.999860269357006,1.0,1.0,1.1502170697296714e-16
1230000,0.43589091728188883,9.999859707923246,1.0,1.0,1.1518677349647637e-16
1235000,0.4419418840658996,9.999859146545326,1.0,1.0,1.1535202654601293e-16
1240000,0.448057841147686,9.999858585223217,1.0,1.0,1.1551746839046322e-16
1245000,0.45423907508641864,9.99985802395689,1.0,1.0,1.1568310121335625e-16
1250000,0.46048586497725813,9.999857462746311,1.0,1.0,1.1584892711193134e-16
1255000,0.46679848230475846,9.999856901591453,1.0,1.0,1.1601494809631624e-16
1260000,0.4731771907991071,9.999856340492283,1.0,1.0,1.1618116608853182e-16
1265000,0.4796222462953538,9.999855779448769,1.0,1.0,1.1634758292169945e-16
1270000,0.4861338965957697,9.999855218460878,1.0,1.0,1.1651420033920164e-16
1275000,0.4927123813354836,9.99985465752858,1.0,1.0,1.1668101999391272e-16
1280000,0.4993579318515397,9.99985409665184,1.0,1.0,1.1684804344742843e-16
1285000,0.5060707710555153,9.999853535830624,1.0,1.0,1.1701527216933792e-16
1290000,0.5128511133098326,9.9998529750649,1.0,1.0,1.171827075365628e-16
