Timestep (s),Sum Voltage (V),Carry Out Voltage (V),Sum Error Rate (Dimless),Carry Out Error Rate (Dimless),Energy Dissipation (J)
0,9.999999427251394,0.00022681375830438058,1.1102230246251565e-15,-2.220446049250313e-16,1.0542286590574864e-17
5000,9.999997421793058,0.0004498070037218554,8.881784197001252e-16,-2.220446049250313e-16,1.4717529059675563e-17
10000,9.999993930213238,0.0006690449308069074,9.992007221626409e-16,-2.220446049250313e-16,1.725293431333148e-17
15000,9.999988972471204,0.0008845915923334232,9.992007221626409e-16,-2.220446049250313e-16,1.9076621298963405e-17
20000,9.999982562905238,0.0010965099278054974,1.1102230246251565e-15,-4.440892098500626e-16,2.050548463513023e-17
25000,9.999974712311543,0.0013048617733965478,9.992007221626409e-16,0.0,2.1684389043717694e-17
30000,9.999965429529286,0.0015097078850114772,9.992007221626409e-16,-4.440892098500626e-16,2.269136195672318e-17
35000,9.999954722245034,0.0017111079642551374,9.992007221626409e-16,-2.220446049250313e-16,2.3573121383808148e-17
40000,9.99994259742505,0.0019091206650917027,9.992007221626409e-16,-2.220446049250313e-16,2.4359795537046788e-17
45000,9.999929061565458,0.002103803627144127,1.1102230246251565e-15,-2.220446049250313e-16,2.507191549127088e-17
50000,9.999914120846505,0.002295213488209115,1.2212453270876722e-15,-2.220446049250313e-16,2.5724081756323014e-17
55000,9.999897781232832,0.0024837371702251736,9.992007221626409e-16,-2.220446049250313e-16,2.6327036352402627e-17
60000,9.999880048541549,0.0026690924870324427,1.2212453270876722e-15,-4.440892098500626e-16,2.6888904931947818e-17
65000,9.999860928490188,0.002851333264964316,9.992007221626409e-16,-4.440892098500626e-16,2.7415977635642436e-17
70000,9.999840426731573,0.0030305124034345904,9.992007221626409e-16,-4.440892098500626e-16,2.791321977105646e-17
75000,9.99981854887988,0.0032066818822972694,1.1102230246251565e-15,-2.220446049250313e-16,2.8384617009036114e-17
80000,9.999795300530604,0.0033798927802091818,1.1102230246251565e-15,-4.440892098500626e-16,2.8833415414091436e-17
85000,9.99977068727621,0.003550195290314149,1.1102230246251565e-15,-2.220446049250313e-16,2.926229247092351e-17
90000,9.999744714718643,0.0037176387436791856,9.992007221626409e-16,-2.220446049250313e-16,2.9673481566610476e-17
95000,9.999717388479528,0.0038822716126573837,9.992007221626409e-16,-2.220446049250313e-16,3.0068864310138595e-17
100000,9.999688714208638,0.0040441415386844185,8.881784197001252e-16,-2.220446049250313e-16,3.0450040147290777e-17
105000,9.999658697591043,0.004203295329275375,9.992007221626409e-16,-2.220446049250313e-16,3.08183796412879e-17
110000,9.999627344353236,0.004359778993270227,1.1102230246251565e-15,0.0,3.117506580002395e-17
115000,9.999594660268482,0.004513637750244531,8.881784197001252e-16,-4.440892098500626e-16,3.152112652142995e-17
120000,9.999560651161532,0.004664916023492992,1.1102230246251565e-15,-4.440892098500626e-16,3.1857460347065804e-17
125000,9.999525322912863,0.004813657488379317,9.992007221626409e-16,-2.220446049250313e-16,3.218485710933093e-17
130000,9.999488681462509,0.0049599050600261626,9.992007221626409e-16,-2.220446049250313e-16,3.250401463805309e-17
135000,9.999450732813603,0.005103700918242375,9.992007221626409e-16,-2.220446049250313e-16,3.2815552392593576e-17
140000,9.99941148303565,0.005245086515434737,1.1102230246251565e-15,-2.220446049250313e-16,3.312002267254161e-17
145000,9.99937093826762,0.005384102592507595,8.881784197001252e-16,-2.220446049250313e-16,3.3417919903659525e-17
150000,9.999329104720864,0.005520789189923193,1.1102230246251565e-15,0.0,3.3709688381318094e-17
155000,9.999285988681919,0.005655185664525956,1.2212453270876722e-15,-2.220446049250313e-16,3.399572876788326e-17
160000,9.999241596515203,0.0057873306914125,1.1102230246251565e-15,1.1102230246251565e-16,3.427640357658877e-17
165000,9.99919593466564,0.005917262285913688,9.992007221626409e-16,-2.220446049250313e-16,3.45520418249879e-17
170000,9.999149009661224,0.006045017815468856,8.881784197001252e-16,0.0,3.482294300410951e-17
175000,9.999100828115541,0.006170634001593036,9.992007221626409e-16,-2.220446049250313e-16,3.5089380480180774e-17
180000,9.999051396730259,0.0062941469397558856,9.992007221626409e-16,-2.220446049250313e-16,3.5351604423161325e-17
185000,9.999000722297604,0.006415592103893082,9.992007221626409e-16,0.0,3.5609844338708606e-17
190000,9.998948811702826,0.006535004367577098,9.992007221626409e-16,-2.220446049250313e-16,3.5864311266073206e-17
195000,9.998895671926672,0.006652418005216512,9.992007221626409e-16,-2.220446049250313e-16,3.611519969324685e-17
200000,9.998841310047853,0.00676786670284028,1.2212453270876722e-15,0.0,3.636268923183835e-17
205000,9.998785733245544,0.0068813835729695984,1.1102230246251565e-15,0.0,3.660694608675059e-17
210000,9.998728948801897,0.006993001164552295,1.2212453270876722e-15,0.0,3.6848124349971473e-17
215000,9.998670964104582,0.007102751470473497,9.992007221626409e-16,-2.220446049250313e-16,3.708636714321555e-17
220000,9.998611786649356,0.007210665932763521,1.1102230246251565e-15,0.0,3.7321807629852603e-17
225000,9.998551424042683,0.007316775463279306,1.1102230246251565e-15,0.0,3.75545699136906e-17
230000,9.998489884004382,0.007421110444368865,1.2212453270876722e-15,-2.220446049250313e-16,3.778476983946477e-17
235000,9.99842717437033,0.007523700741498454,1.1102230246251565e-15,0.0,3.8012515707453945e-17
240000,9.998363303095203,0.007624575710914722,9.992007221626409e-16,0.0,3.8237908913168674e-17
245000,9.998298278255294,0.007723764213129645,1.1102230246251565e-15,-2.220446049250313e-16,3.84610445212051e-17
250000,9.998232108051363,0.00782129460910029,1.1102230246251565e-15,-2.220446049250313e-16,3.8682011781250114e-17
255000,9.998164800811562,0.007917194784710046,9.992007221626409e-16,2.220446049250313e-16,3.8900894593028064e-17
260000,9.998096364994426,0.00801149214961913,1.1102230246251565e-15,1.1102230246251565e-16,3.9117771926181593e-17
265000,9.99802680919193,0.008104213643777098,1.1102230246251565e-15,0.0,3.9332718200176084e-17
270000,9.997956142132614,0.00819538575566667,1.1102230246251565e-15,0.0,3.95458036286246e-17
275000,9.997884372684789,0.008285034519833267,9.992007221626409e-16,-2.220446049250313e-16,3.9757094532080353e-17
280000,9.997811509859822,0.008373185526955769,1.1102230246251565e-15,0.0,3.996665362258661e-17
285000,9.997737562815507,0.008459863939711985,8.881784197001252e-16,-2.220446049250313e-16,4.01745402630042e-17
290000,9.997662540859508,0.008545094489042553,1.1102230246251565e-15,0.0,4.038081070383587e-17
295000,9.997586215480661,0.008628901484572994,1.1102230246251565e-15,0.0,4.0585518285700035e-17
300000,9.997507983129518,0.0087113088263196,9.992007221626409e-16,-2.220446049250313e-16,4.078871362845871e-17
305000,9.99742784414762,0.008792340013810285,1.1102230246251565e-15,0.0,4.099044487073235e-17
310000,9.997345798871482,0.008872018141498083,9.992007221626409e-16,-2.220446049250313e-16,4.119075780229899e-17
315000,9.99726184763289,0.008950365913955123,9.992007221626409e-16,-2.220446049250313e-16,4.1389696017614044e-17
320000,9.997175990759159,0.009027405652705682,9.992007221626409e-16,0.0,4.1587301057334197e-17
325000,9.997088228573384,0.009103159300347044,1.1102230246251565e-15,-2.220446049250313e-16,4.1783612538792254e-17
330000,9.996998561394676,0.009177648428680572,1.1102230246251565e-15,-2.220446049250313e-16,4.1978668276463555e-17
335000,9.996906989538372,0.009250894250179617,9.992007221626409e-16,0.0,4.217250439337484e-17
340000,9.996813513316233,0.009322917605082885,9.992007221626409e-16,-2.220446049250313e-16,4.2365155424301566e-17
345000,9.996718133036639,0.009393738992659507,9.992007221626409e-16,1.1102230246251565e-16,4.2556654411254913e-17
350000,9.996620849004751,0.009463378560747568,9.992007221626409e-16,0.0,4.2747032992217394e-17
355000,9.996521661522683,0.009531856117021084,1.2212453270876722e-15,-2.220446049250313e-16,4.2936321483557504e-17
360000,9.996420570889649,0.009599191136019194,9.992007221626409e-16,-2.220446049250313e-16,4.312454895657156e-17
365000,9.996317577402106,0.009665402762131375,1.1102230246251565e-15,0.0,4.331174330890981e-17
370000,9.996212681353889,0.00973050982079436,1.2212453270876722e-15,-2.220446049250313e-16,4.349793133094383e-17
375000,9.99610588303633,0.009794530808569523,8.881784197001252e-16,0.0,4.36831387678815e-17
380000,9.995997182738387,0.00985748392242692,1.1102230246251565e-15,-2.220446049250313e-16,4.3867390377585844e-17
385000,9.995886580746738,0.009919387045261324,1.2212453270876722e-15,0.0,4.405070998476329e-17
390000,9.9957740773459,0.009980257759699246,1.2212453270876722e-15,-2.220446049250313e-16,4.4233120531586344e-17
395000,9.995659672818313,0.01004011335428842,1.1102230246251565e-15,0.0,4.4414644125130754e-17
400000,9.995543367444444,0.010098970820937244,9.992007221626409e-16,0.0,4.459530208186699e-17
405000,9.995425161502865,0.010156846867160084,1.1102230246251565e-15,0.0,4.477511496938698e-17
410000,9.995305055270336,0.010213757921960432,1.2212453270876722e-15,-2.220446049250313e-16,4.495410264556677e-17
415000,9.995183049021884,0.010269720130959822,9.992007221626409e-16,0.0,4.5132284295439817e-17
420000,9.995059143030876,0.010324749376861531,1.1102230246251565e-15,0.0,4.530967846583572e-17
425000,9.994933337569083,0.010378861269833513,8.881784197001252e-16,0.0,4.5486303098069584e-17
430000,9.994805632906756,0.010432071154117076,1.3322676295501878e-15,-2.220446049250313e-16,4.5662175558720654e-17
435000,9.994676029312672,0.010484394118751359,1.2212453270876722e-15,-2.220446049250313e-16,4.5837312668640527e-17
440000,9.994544527054204,0.010535845002438012,1.1102230246251565e-15,-2.220446049250313e-16,4.60117307304051e-17
445000,9.994411126397374,0.01058643838679974,-2.220446049250313e-16,0.0,4.618544555424808e-17
450000,9.994275827606902,0.01063618861621094,-2.220446049250313e-16,0.0,4.6358472482573065e-17
455000,9.994138630946262,0.010685109783722176,0.0,-2.220446049250313e-16,4.653082641323892e-17
460000,9.993999536677721,0.010733215757210578,-2.220446049250313e-16,0.0,4.6702521821496e-17
465000,9.993858545062393,0.010780520161868505,0.0,0.0,4.687357278100873e-17
470000,9.993715656360273,0.01082703639630025,0.0,-2.220446049250313e-16,4.704399298363181e-17
475000,9.993570870830283,0.010872777638036235,0.0,0.0,4.721379575831395e-17
480000,9.993424188730312,0.010917756834613318,-2.220446049250313e-16,0.0,4.7382994089111116e-17
485000,9.993275610317248,0.010961986727073693,0.0,1.1102230246251565e-16,4.7551600632271577e-17
490000,9.993125135847016,0.011005479833100336,-2.220446049250313e-16,-2.220446049250313e-16,4.771962773264296e-17
495000,9.992972765574613,0.011048248465101052,-2.220446049250313e-16,-2.220446049250313e-16,4.788708743927988e-17
500000,9.992818499754136,0.011090304724534645,0.0,0.0,4.8053991520372635e-17
505000,9.992662338638816,0.011131660516754795,0.0,0.0,4.8220351477575995e-17
510000,9.992504282481043,0.011172327541706186,0.0,1.1102230246251565e-16,4.838617855978946e-17
515000,9.9923443315324,0.01121231730381054,0.0,-2.220446049250313e-16,4.855148377633023e-17
520000,9.992182486043687,0.011251641114114632,-2.220446049250313e-16,0.0,4.8716277909656175e-17
525000,9.99201874626494,0.011290310094857182,-2.220446049250313e-16,0.0,4.8880571527622494e-17
530000,9.991853112445463,0.011328335180357736,-2.220446049250313e-16,0.0,4.9044374995318855e-17
535000,9.991685584833855,0.01136572712497614,0.0,-2.220446049250313e-16,4.9207698486525004e-17
540000,9.99151616367802,0.011402496496480754,-2.220446049250313e-16,0.0,4.937055199487696e-17
545000,9.991344849225197,0.011438653694003556,-2.220446049250313e-16,0.0,4.953294534461006e-17
550000,9.99117164172198,0.011474208931250014,-2.220446049250313e-16,-2.220446049250313e-16,4.96948882011854e-17
555000,9.990996541414335,0.01150917225953599,-2.220446049250313e-16,0.0,4.985639008149771e-17
560000,9.990819548547618,0.011543553559628418,0.0,0.0,5.001746036403861e-17
565000,9.9906406633666,0.011577362546383573,0.0,0.0,5.0178108298805894e-17
570000,9.990459886115472,0.011610608772361931,0.0,-2.220446049250313e-16,5.0338343017066015e-17
575000,9.990277217037876,0.011643301627019056,0.0,-2.220446049250313e-16,5.049817354109445e-17
580000,9.99009265637691,0.01167545034722814,-2.220446049250313e-16,-2.220446049250313e-16,5.065760879372184e-17
585000,9.989906204375151,0.011707064009944819,0.0,0.0,5.0816657607988085e-17
590000,9.989717861274661,0.011738151543912015,-2.220446049250313e-16,0.0,5.097532873668805e-17
595000,9.989527627317011,0.011768721725299617,0.0,-2.220446049250313e-16,5.113363086204756e-17
600000,9.98933550274329,0.011798783186608888,-2.220446049250313e-16,0.0,5.1291572605420953e-17
605000,9.989141487794113,0.011828344413191184,0.0,-2.220446049250313e-16,5.1449162537187057e-17
610000,9.988945582709645,0.011857413751528472,-2.220446049250313e-16,-2.220446049250313e-16,5.1606409186757513e-17
615000,9.988747787729604,0.011885999405524822,1.1102230246251565e-16,-2.220446049250313e-16,5.1763321052941827e-17
620000,9.98854810309328,0.011914109443469415,-2.220446049250313e-16,0.0,5.1919906614440654e-17
625000,9.988346529039534,0.01194175179771444,-2.220446049250313e-16,0.0,5.207617434082124e-17
630000,9.988143065806826,0.011968934269914744,0.0,-2.220446049250313e-16,5.223213270386303e-17
635000,9.987937713633213,0.011995664526639254,-2.220446049250313e-16,0.0,5.2387790189445356e-17
640000,9.987730472756363,0.01202195010898017,0.0,-2.220446049250313e-16,5.25431553099292e-17
645000,9.987521343413563,0.012047798431204322,0.0,-2.220446049250313e-16,5.269823661734321e-17
650000,9.987310325841735,0.01207321678529869,-2.220446049250313e-16,0.0,5.285304271722854e-17
655000,9.987097420277436,0.01209821233950167,-2.220446049250313e-16,0.0,5.300758228350126e-17
660000,9.986882626956872,0.012122792141136539,0.0,-2.220446049250313e-16,5.3161864074273966e-17
665000,9.986665946115906,0.012146963124678126,-2.220446049250313e-16,-2.220446049250313e-16,5.3315896948943306e-17
670000,9.986447377990066,0.01217073210168613,-2.220446049250313e-16,0.0,5.346968988661759e-17
675000,9.986226922814554,0.012194105778494927,-2.220446049250313e-16,-2.220446049250313e-16,5.362325200608625e-17
680000,9.98600458082425,0.012217090741745333,-2.220446049250313e-16,0.0,5.3776592587714214e-17
685000,9.985780352253725,0.012239693467372859,-2.220446049250313e-16,-2.220446049250313e-16,5.392972109737394e-17
690000,9.985554237337244,0.012261920325659658,0.0,-2.220446049250313e-16,5.4082647212724025e-17
695000,9.98532623630877,0.012283777587864043,0.0,-2.220446049250313e-16,5.423538085231209e-17
700000,9.985096349401983,0.012305271409087368,-2.220446049250313e-16,1.1102230246251565e-16,5.438793220800608e-17
705000,9.984864576850272,0.012326407847295152,-2.220446049250313e-16,0.0,5.454031178097765e-17
710000,9.98463091888675,0.012347192855828283,-2.220446049250313e-16,-2.220446049250313e-16,5.469253042213704e-17
715000,9.98439537574426,0.012367632293928127,0.0,-2.220446049250313e-16,5.484459937753593e-17
720000,9.984157947655374,0.012387731918186078,-2.220446049250313e-16,0.0,5.499653033977939e-17
725000,9.983918634852406,0.012407497390790837,0.0,1.1102230246251565e-16,5.5148335506309225e-17
730000,9.983677437567417,0.01242693427820177,-2.220446049250313e-16,0.0,5.5300027645900386e-17
735000,9.983434356032216,0.012446048056770166,-2.220446049250313e-16,0.0,5.545162017480558e-17
740000,9.983189390478367,0.012464844109357028,-2.220446049250313e-16,0.0,5.56031272444892e-17
745000,9.982942541137197,0.01248332772973362,0.0,0.0,5.575456384306584e-17
750000,9.982693808239798,0.012501504119842594,0.0,0.0,5.590573609640843e-17
755000,9.982443192017033,0.012519378398030648,0.0,0.0,5.605648855841782e-17
760000,9.98219069269954,0.012536955600400433,-2.220446049250313e-16,-2.220446049250313e-16,5.620683655438066e-17
765000,9.981936310517735,0.01255424067281228,-4.440892098500626e-16,0.0,5.635679447017055e-17
770000,9.98168004570182,0.012571238480561029,-2.220446049250313e-16,0.0,5.650637585701889e-17
775000,9.981421898481784,0.012587953808373234,0.0,-2.220446049250313e-16,5.665559352197037e-17
780000,9.981161869087408,0.01260439136227552,-2.220446049250313e-16,-2.220446049250313e-16,5.68044596063464e-17
785000,9.980899957748273,0.012620555766653465,-2.220446049250313e-16,0.0,5.695298565403572e-17
790000,9.980636164693756,0.012636451571185602,-2.220446049250313e-16,-2.220446049250313e-16,5.710118267119908e-17
795000,9.980370490153039,0.01265208325217757,0.0,0.0,5.724906117862273e-17
800000,9.980102934355113,0.012667455204762016,-2.220446049250313e-16,0.0,5.739663125787995e-17
805000,9.97983349752878,0.012682571753152967,-2.220446049250313e-16,0.0,5.754390259203073e-17
810000,9.979562179902658,0.012697437153410518,-2.220446049250313e-16,-2.220446049250313e-16,5.769088450171035e-17
815000,9.97928898170518,0.01271205558344016,0.0,0.0,5.783758597727992e-17
820000,9.979013903164601,0.01272643116092408,0.0,0.0,5.798401570733877e-17
825000,9.978736944509004,0.012740567926460543,0.0,-2.220446049250313e-16,5.813018210439285e-17
830000,9.978458105966297,0.012754469859403058,-2.220446049250313e-16,-2.220446049250313e-16,5.827609332766146e-17
835000,9.97817738776422,0.012768140864323521,-2.220446049250313e-16,-2.220446049250313e-16,5.842175730374095e-17
840000,9.977894790130346,0.012781584789178064,-2.220446049250313e-16,0.0,5.856718174505119e-17
845000,9.977610313292084,0.012794805414486469,-2.220446049250313e-16,0.0,5.871237416659966e-17
850000,9.977323957476685,0.012807806459125153,-2.220446049250313e-16,0.0,5.885734190105144e-17
855000,9.97703572291124,0.012820591574058848,0.0,0.0,5.900209211249134e-17
860000,9.976745609822684,0.012833164358233742,0.0,0.0,5.914663180873179e-17
865000,9.976453618437803,0.012845528343842342,-2.220446049250313e-16,-2.220446049250313e-16,5.929096785268843e-17
870000,9.976159748983232,0.012857687010798438,0.0,-2.220446049250313e-16,5.943510697261831e-17
875000,9.975864001685455,0.012869643770798233,-2.220446049250313e-16,1.1102230246251565e-16,5.957905577153537e-17
880000,9.975566376770814,0.012881401986544905,-2.220446049250313e-16,0.0,5.972282073571071e-17
885000,9.975266874465508,0.012892964964873308,-2.220446049250313e-16,0.0,5.986640819568236e-17
890000,9.974965494995592,0.012904335957510208,0.0,0.0,6.000982447389542e-17
895000,9.974662238586989,0.012915518153321908,-2.220446049250313e-16,0.0,6.015307575084957e-17
900000,9.974357105465481,0.012926514699883422,-2.220446049250313e-16,1.1102230246251565e-16,6.029616811782551e-17
905000,9.974050095856716,0.012937328684097261,-2.220446049250313e-16,-2.220446049250313e-16,6.043910758248094e-17
910000,9.973741209986214,0.012947963148364609,-2.220446049250313e-16,-2.220446049250313e-16,6.058190007387174e-17
915000,9.97343044807936,0.012958421074732827,-2.220446049250313e-16,-2.220446049250313e-16,6.072455144716601e-17
920000,9.973117810361416,0.012968705408416334,0.0,-2.220446049250313e-16,6.086706748781227e-17
925000,9.972803297057514,0.012978819032818013,0.0,-2.220446049250313e-16,6.100945391558527e-17
930000,9.972486908392662,0.012988764789688738,-2.220446049250313e-16,0.0,6.115171638811721e-17
935000,9.972168644591749,0.012998545474281208,0.0,0.0,6.129386050423807e-17
940000,9.97184850587954,0.013008163831728153,-2.220446049250313e-16,-2.220446049250313e-16,6.143589180703549e-17
945000,9.971526492480685,0.013017622564427178,-2.220446049250313e-16,-2.220446049250313e-16,6.15778157866365e-17
950000,9.971202604619712,0.013026924327732819,0.0,0.0,6.171963788278166e-17
955000,9.970876842521038,0.013036071734380386,-2.220446049250313e-16,1.1102230246251565e-16,6.186136348718516e-17
960000,9.970549206408965,0.013045067354145177,-2.220446049250313e-16,0.0,6.200299794565693e-17
965000,9.97021969650768,0.013053913710464082,0.0,-4.440892098500626e-16,6.214454656011339e-17
