Timestep (s),Sum Voltage (V),Carry Out Voltage (V),Sum Error Rate (Dimless),Carry Out Error Rate (Dimless),Energy Dissipation (J)
0,9.999999427251394,0.00022681375830438058,1.0,-2.220446049250313e-16,1.0403043073813622e-17
5000,9.999997421793058,0.0004498070037218554,1.0,-2.220446049250313e-16,1.4439252998529702e-17
10000,9.999993930213238,0.0006690449308069074,1.0,-2.220446049250313e-16,1.6835836341466413e-17
15000,9.999988972471204,0.0008845915923334232,1.0,-2.220446049250313e-16,1.8520911699844402e-17
20000,9.999982562905238,0.0010965099278054974,1.0,-4.440892098500626e-16,1.981137333628666e-17
25000,9.999974712311543,0.0013048617733965478,1.0,0.0,2.0852085610935648e-17
30000,9.999965429529286,0.0015097078850114772,1.0,-4.440892098500626e-16,2.1721075588067682e-17
35000,9.999954722245034,0.0017111079642551374,1.0,-2.220446049250313e-16,2.2465060903565866e-17
40000,9.99994259742505,0.0019091206650917027,1.0,-2.220446049250313e-16,2.311416938957435e-17
45000,9.999929061565458,0.002103803627144127,1.0,-2.220446049250313e-16,2.3688931734679182e-17
50000,9.999914120846505,0.002295213488209115,1.0,-2.220446049250313e-16,2.4203948056090305e-17
55000,9.999897781232832,0.00248340589278392,1.0,-2.220446049250313e-16,2.4669959987853773e-17
60000,9.999880048541549,0.0026684355305031018,1.0,-2.220446049250313e-16,2.5095092764275968e-17
65000,9.999860928490188,0.002850356128708239,1.0,-2.220446049250313e-16,2.5485636113472862e-17
70000,9.999840426731573,0.0030292204950313636,1.0,-4.440892098500626e-16,2.5846554923553056e-17
75000,9.999818548879881,0.0032050805149949897,1.0,-2.220446049250313e-16,2.6181834438898926e-17
80000,9.999795300530607,0.00337798717317784,1.0,-4.440892098500626e-16,2.6494720290444698e-17
85000,9.999770687276214,0.003547990582562257,1.0,-2.220446049250313e-16,2.678788952201256e-17
90000,9.999744714718648,0.0037151399788829705,1.0,-2.220446049250313e-16,2.7063575072541396e-17
95000,9.999717388479535,0.003879483745405084,1.0,-2.220446049250313e-16,2.732365809530559e-17
100000,9.999688714208649,0.00404106943912587,1.0,-2.220446049250313e-16,2.7569737572788083e-17
105000,9.999658697591057,0.004199943787681301,1.0,-2.220446049250313e-16,2.780318359711262e-17
110000,9.999627344353256,0.004356152716311406,1.0,-2.220446049250313e-16,2.802517869719511e-17
115000,9.999594660268507,0.004509741361182152,1.0,-2.220446049250313e-16,2.8236750284042684e-17
120000,9.999560651161564,0.004660754070180118,1.0,-2.220446049250313e-16,2.843879640402237e-17
125000,9.999525322912904,0.004809234439211235,1.0,-2.220446049250313e-16,2.86321063861325e-17
130000,9.99948868146256,0.004955225309230823,1.0,-2.220446049250313e-16,2.881737754829511e-17
135000,9.999450732813667,0.005098768781026296,1.0,-2.220446049250313e-16,2.899522882944574e-17
140000,9.99941148303573,0.005239906232998671,1.0,-2.220446049250313e-16,2.9166211999984033e-17
145000,9.999370938267719,0.005378678336570879,1.0,-2.220446049250313e-16,2.933082094763486e-17
150000,9.999329104720985,0.005515125062446247,1.0,-2.220446049250313e-16,2.9489499420660215e-17
155000,9.999285988682066,0.005649285693091097,1.0,1.1102230246251565e-16,2.9642647525205367e-17
160000,9.999241596515382,0.005781198835479831,1.0,0.0,2.979062720891383e-17
165000,9.999195934665858,0.005910902440214834,1.0,-2.220446049250313e-16,2.99337669142529e-17
170000,9.999149009661487,0.006038433804856173,1.0,0.0,3.007236554756702e-17
175000,9.999100828115857,0.006163829589184085,1.0,-2.220446049250313e-16,3.0206695880521284e-17
180000,9.999051396730637,0.0062871258199209195,1.0,0.0,3.0337007478561854e-17
185000,9.999000722298055,0.006408357916088926,1.0,-2.220446049250313e-16,3.04635292326597e-17
190000,9.998948811703361,0.0065275606850836365,1.0,0.0,3.058647155709139e-17
195000,9.998895671927302,0.0066447683375355695,1.0,0.0,3.070602830433267e-17
200000,9.998841310048595,0.00676001450129082,1.0,0.0,3.0822378439807786e-17
205000,9.998785733246416,0.006873332231410884,1.0,0.0,3.093568751135045e-17
210000,9.998728948802919,0.006984754019781485,1.0,-2.220446049250313e-16,3.104610894286584e-17
215000,9.998670964105772,0.007094311799100005,1.0,0.0,3.1153785176682645e-17
220000,9.99861178665074,0.007202036960607059,1.0,-2.220446049250313e-16,3.1258848685372933e-17
225000,9.998551424044287,0.007307960358603648,1.0,-2.220446049250313e-16,3.1361422870328184e-17
230000,9.998489884006236,0.007412112326191516,1.0,-4.440892098500626e-16,3.146162286196255e-17
235000,9.998427174372466,0.007514522671245266,1.0,-2.220446049250313e-16,3.1559556234230635e-17
240000,9.99836330309766,0.00761522070303691,1.0,-2.220446049250313e-16,3.165532364401328e-17
245000,9.99829827825811,0.00771423522226435,1.0,0.0,3.174901940483625e-17
250000,9.998232108054582,0.007811594547990955,1.0,-2.220446049250313e-16,3.184073200258566e-17
255000,9.998164800815234,0.007907326513284152,1.0,-2.220446049250313e-16,3.1930544560252985e-17
260000,9.998096364998606,0.008001458478955272,1.0,-2.220446049250313e-16,3.201853525761857e-17
265000,9.998026809196677,0.008094017338138847,1.0,0.0,3.2104777710834105e-17
270000,9.997956142137992,0.008185029531853169,1.0,-2.220446049250313e-16,3.218934131656869e-17
275000,9.997884372690871,0.008274521049466311,1.0,-2.220446049250313e-16,3.2272291564572435e-17
280000,9.997811509866688,0.008362517439762983,1.0,0.0,3.2353690321883346e-17
285000,9.997737562823241,0.008449043815408813,1.0,0.0,3.243359609206283e-17
290000,9.997662540868207,0.008534124864623632,1.0,0.0,3.251206425151109e-17
295000,9.997586215486246,0.008617784859783623,1.0,0.0,3.258914725184033e-17
300000,9.99750798313181,0.008700047656932774,1.0,-2.220446049250313e-16,3.2664894808717726e-17
305000,9.997427844146433,0.008780936709147202,1.0,0.0,3.273935414103806e-17
310000,9.997345798866627,0.008860475074038343,1.0,-2.220446049250313e-16,3.281257010303545e-17
315000,9.997261847624166,0.008938685416609169,1.0,-2.220446049250313e-16,3.2884585337521156e-17
320000,9.997175990746358,0.009015590017106808,1.0,0.0,3.295544041707845e-17
325000,9.997088228556294,0.009091210781670371,1.0,-2.220446049250313e-16,3.302517397422438e-17
330000,9.996998561373072,0.009165569244574324,1.0,-2.220446049250313e-16,3.3093822821544014e-17
335000,9.996906989512024,0.009238686574838794,1.0,-2.220446049250313e-16,3.316142206281669e-17
340000,9.996813513284902,0.00931058358382676,1.0,-2.220446049250313e-16,3.3228005195744286e-17
345000,9.996718133000075,0.009381280729546257,1.0,0.0,3.329360420717665e-17
350000,9.996620848962698,0.009450798130238742,1.0,-2.220446049250313e-16,3.335824966147906e-17
355000,9.996521661474874,0.009519155554988312,1.0,-2.220446049250313e-16,3.3421970782521495e-17
360000,9.996420570835811,0.009586372444263646,1.0,0.0,3.348479552987668e-17
365000,9.996317577341953,0.009652467908637215,1.0,0.0,3.3546750669792524e-17
370000,9.996212681287128,0.009717460738821213,1.0,0.0,3.360786184119544e-17
375000,9.99610588296266,0.009781369405181714,1.0,-2.220446049250313e-16,3.366815361733215e-17
380000,9.99599718265749,0.00984421206670777,1.0,-2.220446049250313e-16,3.3727649563153846e-17
385000,9.995886580658293,0.009906006575787926,1.0,0.0,3.378637228906554e-17
390000,9.995774077249573,0.009966770485987821,1.0,-2.220446049250313e-16,3.384434350107505e-17
395000,9.99565967271376,0.010026521048948772,1.0,0.0,3.390158404773164e-17
400000,9.995543367331308,0.010085275233663591,1.0,0.0,3.395811396405874e-17
405000,9.995425161380778,0.010143049720607505,1.0,0.0,3.401395251278749e-17
410000,9.995305055138921,0.010199860902872922,1.0,0.0,3.406911822306105e-17
415000,9.995183048880751,0.010255724904224366,1.0,0.0,3.4123628926607197e-17
420000,9.995059142879624,0.010310657576566013,1.0,-4.440892098500626e-16,3.4177501791835813e-17
425000,9.9949333374073,0.010364674500833218,1.0,0.0,3.423075335592413e-17
430000,9.994805632734012,0.010417790997596354,1.0,-2.220446049250313e-16,3.428339955494001e-17
435000,9.99467602912853,0.010470022129485581,1.0,-2.220446049250313e-16,3.433545575221584e-17
440000,9.994544526858215,0.010521382703946492,1.0,1.1102230246251565e-16,3.4386936765073046e-17
445000,9.994411126189073,0.010571887284363563,1.0,-2.220446049250313e-16,3.4437856890030674e-17
450000,9.994275827385813,0.010621550184857885,1.0,-2.220446049250313e-16,3.4488229926599924e-17
455000,9.994138630711893,0.010670385478004621,1.0,-2.220446049250313e-16,3.453806919973311e-17
460000,9.993999536429568,0.010718407000495245,1.0,0.0,3.458738758101623e-17
465000,9.993858544799936,0.010765628358914498,1.0,0.0,3.4636197508692613e-17
470000,9.99371565608298,0.01081206293152086,1.0,0.0,3.4684511006657684e-17
475000,9.993570870537608,0.010857723862052391,1.0,-2.220446049250313e-16,3.473233970239128e-17
480000,9.993424188421693,0.01090262408673401,1.0,-2.220446049250313e-16,3.477969484391231e-17
485000,9.993275609992107,0.010946776318469962,1.0,-4.440892098500626e-16,3.48265873158894e-17
490000,9.99312513550476,0.010990193054872407,1.0,0.0,3.4873027654937875e-17
495000,9.992972765214633,0.011032886586061781,1.0,-2.220446049250313e-16,3.491902606401239e-17
500000,9.992818499375808,0.011074868995860609,1.0,-2.220446049250313e-16,3.4964592426189414e-17
505000,9.992662338241498,0.011116152162104717,1.0,-2.220446049250313e-16,3.5009736317708405e-17
510000,9.992504282064079,0.011156747766718423,1.0,0.0,3.505446702033693e-17
515000,9.992344331095115,0.011196667294796563,1.0,0.0,3.5098793533143944e-17
520000,9.992182485585387,0.01123592203824103,1.0,-2.220446049250313e-16,3.5142724583713884e-17
525000,9.992018745784915,0.011274523096926498,1.0,1.1102230246251565e-16,3.518626863875844e-17
530000,9.991853111942987,0.011312481388369953,1.0,0.0,3.522943391430229e-17
535000,9.991685584308183,0.011349807648217304,1.0,0.0,3.527222838531168e-17
540000,9.991516163128386,0.011386512426852947,1.0,-2.220446049250313e-16,3.53146597948861e-17
545000,9.991344848650819,0.011422606100777683,1.0,-2.220446049250313e-16,3.535673566302914e-17
550000,9.991171641122055,0.011458098875240184,1.0,0.0,3.539846329500193e-17
555000,9.99099654078804,0.011493000774518237,1.0,-2.220446049250313e-16,3.5439849789369737e-17
560000,9.99081954789411,0.011527321667842977,1.0,0.0,3.5480902045450516e-17
565000,9.990640662685017,0.011561071246971425,1.0,0.0,3.5521626770773915e-17
570000,9.990459885404931,0.011594259050361981,1.0,-2.220446049250313e-16,3.556203048787129e-17
575000,9.990277216297473,0.011626894452310339,1.0,-2.220446049250313e-16,3.5602119540995084e-17
580000,9.99009265560572,0.011658986673291174,1.0,-2.220446049250313e-16,3.564190010240283e-17
585000,9.989906203572223,0.011690544773227632,1.0,-2.220446049250313e-16,3.5681378178493114e-17
590000,9.989717860439027,0.011721577666711567,1.0,1.1102230246251565e-16,3.5720559615529146e-17
595000,9.989527626447678,0.011752094114109168,1.0,0.0,3.575945010522332e-17
600000,9.989335501839241,0.011782102735141995,1.0,-2.220446049250313e-16,3.5798055190054597e-17
605000,9.98914148685431,0.011811612000505145,1.0,-2.220446049250313e-16,3.583638026836371e-17
610000,9.988945581733024,0.011840630239604645,1.0,-2.220446049250313e-16,3.587443059922639e-17
615000,9.988747786715077,0.011869165639838926,1.0,-2.220446049250313e-16,3.591221130712939e-17
620000,9.988548102039733,0.011897226258387586,1.0,0.0,3.5949727386417604e-17
625000,9.988346527945833,0.01192482001145241,1.0,0.0,3.598698370566117e-17
630000,9.988143064671807,0.011951954688179358,1.0,-2.220446049250313e-16,3.602398501170141e-17
635000,9.987937712455686,0.011978637940503441,1.0,-2.220446049250313e-16,3.606073593368308e-17
640000,9.987730471535112,0.012004877299295206,1.0,0.0,3.609724098677836e-17
645000,9.987521342147346,0.01203068016364105,1.0,-2.220446049250313e-16,3.613350457589664e-17
650000,9.98731032452928,0.012056053812652564,1.0,-2.220446049250313e-16,3.6169530999157685e-17
655000,9.987097418917445,0.012081005405652623,1.0,-2.220446049250313e-16,3.6205324451266e-17
660000,9.986882625548018,0.01210554197732377,1.0,0.0,3.6240889026771755e-17
665000,9.986665944656833,0.012129670443485131,1.0,-2.220446049250313e-16,3.627622872315361e-17
670000,9.986447376479388,0.012153397608813572,1.0,0.0,3.631134744381525e-17
675000,9.986226921250855,0.012176730166353214,1.0,0.0,3.634624900093349e-17
680000,9.986004579206085,0.012199674689827723,1.0,0.0,3.63809371183201e-17
685000,9.985780350579617,0.012222237647821496,1.0,-2.220446049250313e-16,3.641541543404567e-17
690000,9.985554235605683,0.012244425401550863,1.0,0.0,3.644968750295146e-17
695000,9.985326234518217,0.012266244203602318,1.0,0.0,3.6483756799195045e-17
700000,9.985096347550863,0.012287700202119537,1.0,-2.220446049250313e-16,3.651762671863309e-17
705000,9.984864574936978,0.01230879944653829,1.0,-2.220446049250313e-16,3.655130058105766e-17
710000,9.98463091690964,0.01232954787966965,1.0,-2.220446049250313e-16,3.658478163249517e-17
715000,9.984395373701659,0.012349951345745723,1.0,-2.220446049250313e-16,3.6618073047262355e-17
720000,9.98415794554557,0.012370015593529095,1.0,-2.220446049250313e-16,3.665117793008751e-17
725000,9.983918632673655,0.012389746277288664,1.0,-2.220446049250313e-16,3.6684099318041544e-17
730000,9.983677435317935,0.012409148951644087,1.0,0.0,3.671684018250788e-17
735000,9.983434353710182,0.012428229081385574,1.0,-2.220446049250313e-16,3.674940343099696e-17
740000,9.983189388081925,0.012446992041229163,1.0,-2.220446049250313e-16,3.678179190893962e-17
745000,9.982942538664453,0.012465443119262766,1.0,-2.220446049250313e-16,3.6814008401408184e-17
750000,9.982693805688818,0.012483587503336465,1.0,-2.220446049250313e-16,3.6846055634820886e-17
755000,9.982443189385842,0.012501430309594368,1.0,-2.220446049250313e-16,3.6877936278453464e-17
760000,9.982190689986124,0.012518976560551641,1.0,0.0,3.6909652946121715e-17
765000,9.981936307720039,0.012536231193064388,1.0,0.0,3.694120819758447e-17
770000,9.981680042817747,0.012553199063546582,1.0,-4.440892098500626e-16,3.697260454006515e-17
775000,9.981421895509195,0.012569884952290486,1.0,-2.220446049250313e-16,3.700384442957574e-17
780000,9.981161866024122,0.012586293555978137,1.0,-2.220446049250313e-16,3.703493027234804e-17
785000,9.980899954592063,0.012602429487492307,1.0,0.0,3.7065864426139174e-17
790000,9.980636161442353,0.01261829729241495,1.0,-4.440892098500626e-16,3.7096649201458774e-17
795000,9.980370486804128,0.012633901435155671,1.0,-2.220446049250313e-16,3.7127286862808494e-17
800000,9.980102930906332,0.012649246304020203,1.0,0.0,3.7157779629936236e-17
805000,9.97983349397772,0.012664336223151586,1.0,2.220446049250313e-16,3.718812967890883e-17
810000,9.979562176246862,0.012679175431200448,1.0,0.0,3.7218339143282556e-17
815000,9.979288977942144,0.012693768105665436,1.0,-2.220446049250313e-16,3.724841011513996e-17
820000,9.979013899291772,0.01270811835035986,1.0,0.0,3.727834464619861e-17
825000,9.978736940523776,0.012722230205216522,1.0,0.0,3.7308144748737316e-17
830000,9.978458101866016,0.012736107637559146,1.0,0.0,3.733781239665402e-17
835000,9.978177383546178,0.012749754550612724,1.0,0.0,3.7367349526434886e-17
840000,9.977894785791783,0.012763174781461072,1.0,-2.220446049250313e-16,3.7396758037971225e-17
845000,9.977610308830187,0.01277637210601634,1.0,-2.220446049250313e-16,3.7426039795569676e-17
850000,9.977323952888584,0.012789350234734773,1.0,-2.220446049250313e-16,3.745519662875004e-17
855000,9.977035718194013,0.012802112815145785,1.0,0.0,3.7484230333132426e-17
860000,9.976745604973352,0.012814663436739676,1.0,-2.220446049250313e-16,3.7513142671214124e-17
865000,9.976453613453328,0.012827005624466061,1.0,-2.220446049250313e-16,3.7541935373208774e-17
870000,9.976159743860517,0.012839142853588366,1.0,-2.220446049250313e-16,3.7570610137746646e-17
875000,9.975863996421344,0.012851078536470323,1.0,-2.220446049250313e-16,3.759916863270443e-17
880000,9.975566371362092,0.012862816022707921,1.0,0.0,3.762761249590235e-17
885000,9.975266868908896,0.012874358613206956,1.0,-2.220446049250313e-16,3.765594333578044e-17
890000,9.974965489287753,0.012885709551648788,1.0,0.0,3.7684162732092276e-17
895000,9.974662232724517,0.012896872026797002,1.0,0.0,3.7712272236606515e-17
900000,9.97435709944491,0.012907849179218733,1.0,-2.220446049250313e-16,3.7740273373690654e-17
905000,9.974050089674513,0.012918644092355361,1.0,-2.220446049250313e-16,3.776816764098375e-17
910000,9.973741203638777,0.012929259798271673,1.0,0.0,3.779595651003275e-17
915000,9.973430441563023,0.012939699278204179,1.0,0.0,3.7823641426812653e-17
920000,9.973117803672439,0.012949965467484881,1.0,0.0,3.785122381233491e-17
925000,9.97280329019209,0.012960061249045007,1.0,0.0,3.787870506320529e-17
930000,9.972486901346914,0.012969989460417901,1.0,-2.220446049250313e-16,3.7906086552202344e-17
935000,9.972168637361722,0.01297975288869365,1.0,0.0,3.7933369628734286e-17
940000,9.971848498461211,0.012989354276761537,1.0,0.0,3.796055561943259e-17
945000,9.971526484869951,0.012998796320251171,1.0,0.0,3.798764582860639e-17
950000,9.971202596812397,0.01300808167109091,1.0,0.0,3.801464153874104e-17
955000,9.970876834512886,0.013017212939142467,1.0,0.0,3.8041544010989747e-17
960000,9.970549198195641,0.013026192685610302,1.0,-2.220446049250313e-16,3.8068354485564516e-17
965000,9.970219688084772,0.013035023430577252,1.0,-2.220446049250313e-16,3.8095074182297476e-17
970000,9.969888304404273,0.01304370765415326,1.0,0.0,3.8121704300998535e-17
975000,9.969555047378034,0.013052247793973962,1.0,-2.220446049250313e-16,3.814824602189243e-17
980000,9.969219917229829,0.013060646251051793,1.0,0.0,3.8174700506025697e-17
985000,9.96888291418333,0.013068905379336457,1.0,0.0,3.820106889574036e-17
990000,9.968544038462102,0.0130770274967995,1.0,0.0,3.822735231497367e-17
995000,9.968203290289603,0.013085014884318819,1.0,0.0,3.82535518697072e-17
1000000,9.96786066988919,0.01309286978306998,1.0,0.0,3.8279668648312946e-17
1005000,9.967516177484114,0.01310059439813609,1.0,0.0,3.8305703721888045e-17
1010000,9.96716981329753,0.013108190895318247,1.0,1.1102230246251565e-16,3.8331658144691973e-17
1015000,9.96682157755249,0.013115661409942626,1.0,-2.220446049250313e-16,3.835753295439648e-17
1020000,9.966471470471951,0.013123008031906722,1.0,1.1102230246251565e-16,3.838332917249906e-17
1025000,9.96611949227877,0.013130232827309933,1.0,0.0,3.8409047804594354e-17
1030000,9.965765643195708,0.013137337821918494,1.0,0.0,3.843468984074218e-17
1035000,9.965409923445433,0.013144325004667846,1.0,-2.220446049250313e-16,3.8460256255773424e-17
1040000,9.965052333250519,0.013151196340451208,1.0,1.1102230246251565e-16,3.8485748009530435e-17
1045000,9.964692872833446,0.013157953756514332,1.0,0.0,3.851116604723928e-17
1050000,9.964331542416605,0.013164599143589206,1.0,0.0,3.853651129977919e-17
1055000,9.963968342222296,0.013171134366866477,1.0,1.1102230246251565e-16,3.856178468393988e-17
1060000,9.963603272472726,0.013177561262321332,1.0,-2.220446049250313e-16,3.858698710271775e-17
1065000,9.963236333390018,0.01318388162681131,1.0,-2.220446049250313e-16,3.86121194456163e-17
1070000,9.962867525196208,0.0131900972357559,1.0,0.0,3.863718258883039e-17
1075000,9.962496848113242,0.013196209829318102,1.0,-2.220446049250313e-16,3.8662177395596766e-17
1080000,9.962124302362982,0.013202221124845452,1.0,0.0,3.8687104716344135e-17
1085000,9.961749888167207,0.01320813280413776,1.0,0.0,3.871196538903335e-17
1090000,9.96137360574761,0.01321394652401316,1.0,0.0,3.873676023933247e-17
1095000,9.960995455325806,0.013219663916044361,1.0,0.0,3.8761490080869216e-17
1100000,9.960615437123321,0.013225286581245208,1.0,-2.220446049250313e-16,3.878615571545235e-17
1105000,9.960233551361608,0.013230816094296556,1.0,-2.220446049250313e-16,3.881075793331623e-17
1110000,9.959849798262033,0.013236254002635119,1.0,0.0,3.883529751333387e-17
1115000,9.959464178045886,0.013241601832855174,1.0,0.0,3.8859775223176443e-17
