Timestep (s),Sum Voltage (V),Carry Out Voltage (V),Sum Error Rate (Dimless),Carry Out Error Rate (Dimless),Energy Dissipation (J)
0,0.00022681358649718133,9.999999427186427,1.0,1.0,2.072261943727789e-17
5000,0.00045013514300826045,9.999998854374072,1.0,1.0,2.880226786832029e-17
10000,0.0006696926729732337,9.999998281563983,1.0,1.0,3.359632995767216e-17
15000,0.0008855503802009186,9.999997708757189,1.0,1.0,3.69641777859921e-17
20000,0.0010977713455963501,9.9999971359547,1.0,1.0,3.9541153150019155e-17
25000,0.001306417546884414,9.999996563157517,1.0,1.0,4.161768387362566e-17
30000,0.0015115498824114302,9.999995990366614,1.0,1.0,4.3350177989055603e-17
35000,0.0017132281904104207,9.999995417582953,1.0,1.0,4.48322685803787e-17
40000,0.0019115112546955466,9.999994844807484,1.0,1.0,4.6124330650131285e-17
45000,0.0021064568564083427,9.999994272041134,1.0,1.0,4.726750198085968e-17
50000,0.0022981217550098326,9.999993699284817,1.0,1.0,4.8291034094890465e-17
55000,0.0024865617284338237,9.999993126539433,1.0,1.0,4.921644610033632e-17
60000,0.002671831587926098,9.999992553805868,1.0,1.0,5.006001418657731e-17
65000,0.0028539851890603055,9.999991981084987,1.0,1.0,5.0834336872488945e-17
70000,0.003033075452836024,9.999991408377648,1.0,1.0,5.154935836390792e-17
75000,0.0032091543887076378,9.999990835684688,1.0,1.0,5.2213060291082685e-17
80000,0.003382273100436506,9.999990263006936,1.0,1.0,5.283194266927986e-17
85000,0.003552481807265852,9.9999896903452,1.0,1.0,5.341136656986023e-17
90000,0.0037198298617342578,9.999989117700283,1.0,1.0,5.3955803519224545e-17
95000,0.0038843657682307567,9.999988545072965,1.0,1.0,5.446902044931884e-17
100000,0.004046137180910876,9.999987972464018,1.0,1.0,5.4954219155479623e-17
105000,0.0042051909443252865,9.9999873998742,1.0,1.0,5.541414302644294e-17
110000,0.004361573082416532,9.999986827304259,1.0,1.0,5.58511598265537e-17
115000,0.004515328829748055,9.999986254754926,1.0,1.0,5.626732668378407e-17
120000,0.004666502651572289,9.99998568222692,1.0,1.0,5.666444167173775e-17
125000,0.004815138231049055,9.999985109720953,1.0,1.0,5.70440851634259e-17
130000,0.004961278511144524,9.999984537237717,1.0,1.0,5.740765329036364e-17
135000,0.005104965691072532,9.999983964777897,1.0,1.0,5.775638524396746e-17
140000,0.005246241242603992,9.999983392342166,1.0,1.0,5.809138572654769e-17
145000,0.00538514593119508,9.999982819931185,1.0,1.0,5.84136435472782e-17
150000,0.00552171981738852,9.999982247545603,1.0,1.0,5.872404712865159e-17
155000,0.005656002275119636,9.999981675186058,1.0,1.0,5.902339751746899e-17
160000,0.005788032005526951,9.99998110285318,1.0,1.0,5.931241936571881e-17
165000,0.005917847039793317,9.999980530547585,1.0,1.0,5.95917702487175e-17
170000,0.006045484760083901,9.99997995826988,1.0,1.0,5.986204861263017e-17
175000,0.006170981914245081,9.999979386020659,1.0,1.0,6.012380058562286e-17
180000,0.006294374612517714,9.99997881380051,1.0,1.0,6.037752584158419e-17
185000,0.006415698350143187,9.999978241610009,1.0,1.0,6.062368266959504e-17
190000,0.006534988015061102,9.99997766944972,1.0,1.0,6.086269237447324e-17
195000,0.006652277901552382,9.999977097320201,1.0,1.0,6.109494311118305e-17
200000,0.006767601714633865,9.999976525221998,1.0,1.0,6.132079323802439e-17
205000,0.006880992583591615,9.999975953155648,1.0,1.0,6.154057425900134e-17
210000,0.006992483075254729,9.99997538112168,1.0,1.0,6.175459341413319e-17
215000,0.007102105193891783,9.99997480912061,1.0,1.0,6.196313596692345e-17
220000,0.007209890408195517,9.999974237152951,1.0,1.0,6.21664672302102e-17
225000,0.007315869640280672,9.999973665219203,1.0,1.0,6.236483436563071e-17
230000,0.007420073289578035,9.99997309331986,1.0,1.0,6.255846798600006e-17
235000,0.007522531235710083,9.999972521455403,1.0,1.0,6.274758358607957e-17
240000,0.007623272855000634,9.999971949626309,1.0,1.0,6.293238282309939e-17
245000,0.007722327017981443,9.999971377833045,1.0,1.0,6.31130546656801e-17
250000,0.007819722101490895,9.999970806076073,1.0,1.0,6.328977642685246e-17
255000,0.007915486012155862,9.99997023435584,1.0,1.0,6.346271469490945e-17
260000,0.008009646167807695,9.999969662672793,1.0,1.0,6.363202617413499e-17
265000,0.008102229525217044,9.999969091027365,1.0,1.0,6.379785844534488e-17
270000,0.008193262589374476,9.999968519419987,1.0,1.0,6.396035065547727e-17
275000,0.008282771404457689,9.999967947851077,1.0,1.0,6.411963414398505e-17
280000,0.008370781581021839,9.99996737632105,1.0,1.0,6.427583301265304e-17
285000,0.008457318290910613,9.999966804830313,1.0,1.0,6.442906464517181e-17
290000,0.008542406274195427,9.999966233379263,1.0,1.0,6.457944018145501e-17
295000,0.008626069865480262,9.999965661968293,1.0,1.0,6.472706223872841e-17
300000,0.008708332971197975,9.999965090597787,1.0,1.0,6.487201778037601e-17
305000,0.008789219101546841,9.999964519268124,1.0,1.0,6.501440161910484e-17
310000,0.008868751363337962,9.999963947979676,1.0,1.0,6.515430380620995e-17
315000,0.008946952479275221,9.99996337673281,1.0,1.0,6.529180994176328e-17
320000,0.009023844782887995,9.999962805527883,1.0,1.0,6.542700146013315e-17
325000,0.009099450226666075,9.999962234365247,1.0,1.0,6.555995589298688e-17
330000,0.00917379039348963,9.99996166324525,1.0,1.0,6.569074711196756e-17
335000,0.009246886502779224,9.999961092168231,1.0,1.0,6.581944555286723e-17
340000,0.009318759416037681,9.999960521134525,1.0,1.0,6.594611842299672e-17
345000,0.009389429637857298,9.99995995014446,1.0,1.0,6.607082989322837e-17
350000,0.009458917328826068,9.999959379198357,1.0,1.0,6.619364127600159e-17
355000,0.009527242309811083,9.999958808296535,1.0,1.0,6.631461119058735e-17
360000,0.009594424065981301,9.999958237439303,1.0,1.0,6.643379571661698e-17
365000,0.009660481749862377,9.999957666626969,1.0,1.0,6.655124853693005e-17
370000,0.009725434196476432,9.99995709585983,1.0,1.0,6.666702107051287e-17
375000,0.009789299914356297,9.999956525138185,1.0,1.0,6.678116259647866e-17
380000,0.009852097113009653,9.999955954462319,1.0,1.0,6.689372036962292e-17
385000,0.009913843687389524,9.99995538383252,1.0,1.0,6.700473972847105e-17
390000,0.009974557222460243,9.999954813249063,1.0,1.0,6.711426419618126e-17
395000,0.010034255017232773,9.999954242712226,1.0,1.0,6.722233557488287e-17
400000,0.01009295407900828,9.999953672222277,1.0,1.0,6.732899403410509e-17
405000,0.010150671121038374,9.99995310177948,1.0,1.0,6.74342781936057e-17
410000,0.010207422581381388,9.999952531384096,1.0,1.0,6.75382252010175e-17
415000,0.010263224619960348,9.999951961036379,1.0,1.0,6.764087080474868e-17
420000,0.010318093125135203,9.99995139073658,1.0,1.0,6.774224942246636e-17
425000,0.01037204371307068,9.999950820484944,1.0,1.0,6.784239420547412e-17
430000,0.01042509174042584,9.999950250281714,1.0,1.0,6.794133709922753e-17
435000,0.010477252308141902,9.999949680127125,1.0,1.0,6.803910890034909e-17
440000,0.010528540256692854,9.999949110021412,1.0,1.0,6.8135739310327e-17
445000,0.010578970181825265,9.9999485399648,1.0,1.0,6.82312569861273e-17
450000,0.010628556430569352,9.999947969957516,1.0,1.0,6.832568958793942e-17
455000,0.010677313111653873,9.99994739999978,1.0,1.0,6.841906382423287e-17
460000,0.010725254090343922,9.999946830091806,1.0,1.0,6.851140549437269e-17
465000,0.010772393007314711,9.99994626023381,1.0,1.0,6.860273952878028e-17
470000,0.01081874327058766,9.999945690425996,1.0,1.0,6.869309002704513e-17
475000,0.01086431805942475,9.999945120668572,1.0,1.0,6.878248029391677e-17
480000,0.010909130332305643,9.999944550961738,1.0,1.0,6.887093287338782e-17
485000,0.010953192836280906,9.99994398130569,1.0,1.0,6.895846958096479e-17
490000,0.01099651809677255,9.99994341170062,1.0,1.0,6.904511153434065e-17
495000,0.011039118435936086,9.999942842146721,1.0,1.0,6.913087918236156e-17
500000,0.011081005960420212,9.999942272644176,1.0,1.0,6.921579233265666e-17
505000,0.01112219258123118,9.999941703193171,1.0,1.0,6.929987017772258e-17
510000,0.011162690009423194,9.999941133793882,1.0,1.0,6.938313131979912e-17
515000,0.011202509749802933,9.999940564446488,1.0,1.0,6.946559379453523e-17
520000,0.011241663124499602,9.99993999515116,1.0,1.0,6.954727509335667e-17
525000,0.011280161261961862,9.999939425908066,1.0,1.0,6.962819218489518e-17
530000,0.011318015100760484,9.999938856717375,1.0,1.0,6.970836153531154e-17
535000,0.01135523540372087,9.999938287579248,1.0,1.0,6.978779912762925e-17
540000,0.011391832744109657,9.999937718493847,1.0,1.0,6.986652048022726e-17
545000,0.011427817527783803,9.999937149461328,1.0,1.0,6.99445406643532e-17
550000,0.0114631999762732,9.999936580481844,1.0,1.0,7.002187432098331e-17
555000,0.011497990148049727,9.999936011555548,1.0,1.0,7.009853567672624e-17
560000,0.011532197925042656,9.999935442682585,1.0,1.0,7.017453855915246e-17
565000,0.011565833028169941,9.999934873863102,1.0,1.0,7.024989641132388e-17
570000,0.011598905021762786,9.999934305097243,1.0,1.0,7.032462230569717e-17
575000,0.01163142329436609,9.999933736385145,1.0,1.0,7.03987289575109e-17
580000,0.011663397092889752,9.999933167726947,1.0,1.0,7.047222873737487e-17
585000,0.011694835495027707,9.999932599122783,1.0,1.0,7.054513368356241e-17
590000,0.011725747439224162,9.999932030572783,1.0,1.0,7.06174555135052e-17
595000,0.011756141713348461,9.999931462077079,1.0,1.0,7.068920563500615e-17
600000,0.011786026939452958,9.999930893635796,1.0,1.0,7.076039515693447e-17
605000,0.011815411620919331,9.999930325249057,1.0,1.0,7.083103489929849e-17
610000,0.011844304102687228,9.999929756916986,1.0,1.0,7.090113540313092e-17
615000,0.01187271260084528,9.999929188639701,1.0,1.0,7.097070693980882e-17
620000,0.011900645178465936,9.99992862041732,1.0,1.0,7.103975952010967e-17
625000,0.011928109779400287,9.999928052249956,1.0,1.0,7.110830290271068e-17
630000,0.011955114204829921,9.999927484137723,1.0,1.0,7.117634660255458e-17
635000,0.011981666128927536,9.99992691608073,1.0,1.0,7.124389989873868e-17
640000,0.012007773100690561,9.999926348079086,1.0,1.0,7.131097184211775e-17
645000,0.012033442536749163,9.999925780132894,1.0,1.0,7.137757126265306e-17
650000,0.012058681731335629,9.99992521224226,1.0,1.0,7.144370677643094e-17
655000,0.012083497859340363,9.999924644407285,1.0,1.0,7.150938679238156e-17
660000,0.012107897973312307,9.999924076628067,1.0,1.0,7.157461951879558e-17
665000,0.012131889011548993,9.999923508904706,1.0,1.0,7.163941296954892e-17
670000,0.012155477789433423,9.999922941237296,1.0,1.0,7.170377497013149e-17
675000,0.01217867101319916,9.99992237362593,1.0,1.0,7.176771316337701e-17
680000,0.012201475279066011,9.999921806070699,1.0,1.0,7.183123501504258e-17
685000,0.012223897067317148,9.999921238571693,1.0,1.0,7.189434781915947e-17
690000,0.012245942751281111,9.999920671128999,1.0,1.0,7.195705870318081e-17
695000,0.012267618605997507,9.999920103742703,1.0,1.0,7.201937463289592e-17
700000,0.012288930787994935,9.99991953641289,1.0,1.0,7.208130241730336e-17
705000,0.012309885362877894,9.99991896913964,1.0,1.0,7.214284871311573e-17
710000,0.012330488287157782,9.999918401923036,1.0,1.0,7.220402002925868e-17
715000,0.01235074541994155,9.999917834763156,1.0,1.0,7.226482273112772e-17
720000,0.012370662524699668,9.999917267660077,1.0,1.0,7.232526304470954e-17
725000,0.012390245268228644,9.999916700613873,1.0,1.0,7.238534706057301e-17
730000,0.012409499216960667,9.99991613362462,1.0,1.0,7.244508073772381e-17
735000,0.012428429851304565,9.999915566692387,1.0,1.0,7.250446990727221e-17
740000,0.012447042559205193,9.999914999817246,1.0,1.0,7.256352027603433e-17
745000,0.012465342639058087,9.999914432999267,1.0,1.0,7.262223742998799e-17
750000,0.012483335292481156,9.999913866238517,1.0,1.0,7.268062683761995e-17
755000,0.012501025646827401,9.99991329953506,1.0,1.0,7.273869385312293e-17
760000,0.01251841873379644,9.999912732888962,1.0,1.0,7.279644371954046e-17
765000,0.012535519508613174,9.999912166300286,1.0,1.0,7.285388157174048e-17
770000,0.012552332835577605,9.999911599769092,1.0,1.0,7.291101243937223e-17
775000,0.012568863505268004,9.999911033295442,1.0,1.0,7.296784124963142e-17
780000,0.012585116223642093,9.999910466879394,1.0,1.0,7.302437283002431e-17
785000,0.012601095625094103,9.999909900521004,1.0,1.0,7.308061191095575e-17
790000,0.01261680625532781,9.99990933422033,1.0,1.0,7.313656312833711e-17
795000,0.012632252594284826,9.999908767977425,1.0,1.0,7.319223102596759e-17
800000,0.012647439042968164,9.999908201792344,1.0,1.0,7.324762005800862e-17
805000,0.012662369926391252,9.999907635665139,1.0,1.0,7.330273459124132e-17
810000,0.012677049502079487,9.999907069595858,1.0,1.0,7.335757890730372e-17
815000,0.012691481957150108,9.999906503584553,1.0,1.0,7.341215720486598e-17
820000,0.012705671406282185,9.999905937631272,1.0,1.0,7.34664736017377e-17
825000,0.012719621890638806,9.999905371736062,1.0,1.0,7.352053213690074e-17
830000,0.012733337394003393,9.99990480589897,1.0,1.0,7.357433677244635e-17
835000,0.012746821825106456,9.999904240120038,1.0,1.0,7.362789139554238e-17
840000,0.012760079034764482,9.999903674399313,1.0,1.0,7.368119982021075e-17
845000,0.01277311280512154,9.999903108736834,1.0,1.0,7.373426578919483e-17
850000,0.01278592685477266,9.999902543132645,1.0,1.0,7.378709297566154e-17
855000,0.012798524845585123,9.999901977586786,1.0,1.0,7.383968498488687e-17
860000,0.012810910370227161,9.999901412099296,1.0,1.0,7.38920453559134e-17
865000,0.012823086965325851,9.999900846670213,1.0,1.0,7.394417756313414e-17
870000,0.01283505811075323,9.999900281299574,1.0,1.0,7.399608501781716e-17
875000,0.01284682722740733,9.999899715987416,1.0,1.0,7.404777106962189e-17
880000,0.012858397676799017,9.999899150733773,1.0,1.0,7.40992390080538e-17
885000,0.012869772766544045,9.99989858553868,1.0,1.0,7.415049206386021e-17
890000,0.012880955748876413,9.99989802040217,1.0,1.0,7.420153341041024e-17
895000,0.012891949818745203,9.999897455324275,1.0,1.0,7.425236616504686e-17
900000,0.012902758123263471,9.999896890305028,1.0,1.0,7.430299339032688e-17
905000,0.01291338375678256,9.999896325344457,1.0,1.0,7.435341809531518e-17
910000,0.012923829756110118,9.999895760442593,1.0,1.0,7.440364323682661e-17
915000,0.012934099110312807,9.999895195599462,1.0,1.0,7.44536717205717e-17
920000,0.012944194759965366,9.999894630815096,1.0,1.0,7.45035064023152e-17
925000,0.012954119600274962,9.999894066089519,1.0,1.0,7.455315008900608e-17
930000,0.012963876467590058,9.999893501422758,1.0,1.0,7.460260553989565e-17
935000,0.012973468161486038,9.999892936814836,1.0,1.0,7.465187546754632e-17
940000,0.012982897430983516,9.999892372265782,1.0,1.0,7.470096253889385e-17
945000,0.012992166974481674,9.999891807775615,1.0,1.0,7.474986937627118e-17
950000,0.01300127945122017,9.99989124334436,1.0,1.0,7.479859855832982e-17
955000,0.013010237479818706,9.999890678972038,1.0,1.0,7.48471526210092e-17
960000,0.013019043628669812,9.99989011465867,1.0,1.0,7.489553405850707e-17
965000,0.013027700423844196,9.999889550404278,1.0,1.0,7.494374532413558e-17
970000,0.01303621035015794,9.99988898620888,1.0,1.0,7.499178883119335e-17
975000,0.01304457585642286,9.999888422072496,1.0,1.0,7.503966695382724e-17
980000,0.013052799336558937,9.999887857995144,1.0,1.0,7.508738202792196e-17
985000,0.013060883160405453,9.999887293976842,1.0,1.0,7.513493635177981e-17
990000,0.013068829652548004,9.999886730017606,1.0,1.0,7.51823321870137e-17
995000,0.01307664109295956,9.999886166117452,1.0,1.0,7.52295717593124e-17
1000000,0.013084319733462958,9.999885602276397,1.0,1.0,7.527665725912091e-17
1005000,0.013091867778352495,9.999885038494453,1.0,1.0,7.532359084244345e-17
1010000,0.013099287405458414,9.999884474771635,1.0,1.0,7.537037463148177e-17
1015000,0.013106580752490188,9.999883911107958,1.0,1.0,7.541701071538722e-17
1020000,0.013113749914781866,9.999883347503433,1.0,1.0,7.546350115093362e-17
1025000,0.013120796963525583,9.999882783958073,1.0,1.0,7.550984796310941e-17
1030000,0.013127723926537145,9.999882220471891,1.0,1.0,7.555605314585404e-17
1035000,0.013134532803002573,9.999881657044897,1.0,1.0,7.560211866259446e-17
1040000,0.013141225559159326,9.9998810936771,1.0,1.0,7.564804644691222e-17
1045000,0.013147804124629866,9.999880530368511,1.0,1.0,7.569383840312416e-17
1050000,0.013154270402081013,9.999879967119139,1.0,1.0,7.573949640684532e-17
1055000,0.01316062625590502,9.999879403928993,1.0,1.0,7.57850223055971e-17
1060000,0.013166873524677316,9.99987884079808,1.0,1.0,7.583041791930416e-17
1065000,0.013173014013346557,9.99987827772641,1.0,1.0,7.587568504088331e-17
1070000,0.01317904950139903,9.999877714713987,1.0,1.0,7.59208254367249e-17
1075000,0.013184981730873504,9.999877151760819,1.0,1.0,7.596584084726208e-17
1080000,0.0131908124266676,9.999876588866911,1.0,1.0,7.601073298738809e-17
1085000,0.01319654327373468,9.99987602603227,1.0,1.0,7.605550354705448e-17
1090000,0.013202175931960713,9.9998754632569,1.0,1.0,7.610015419167156e-17
1095000,0.01320771203389182,9.999874900540807,1.0,1.0,7.614468656259126e-17
1100000,0.01321315318406266,9.999874337883991,1.0,1.0,7.618910227758508e-17
1105000,0.013218500967975916,9.999873775286458,1.0,1.0,7.623340293122751e-17
1110000,0.013223756938802532,9.999873212748211,1.0,1.0,7.627759009539982e-17
1115000,0.013228922621573137,9.999872650269253,1.0,1.0,7.63216653197105e-17
1120000,0.013233999516891144,9.999872087849585,1.0,1.0,7.636563013187531e-17
1125000,0.013238989101595107,9.999871525489208,1.0,1.0,7.640948603814079e-17
1130000,0.013243892830214144,9.999870963188124,1.0,1.0,7.645323452365975e-17
1135000,0.013248712128688382,9.999870400946335,1.0,1.0,7.64968770529178e-17
1140000,0.013253448401169685,9.99986983876384,1.0,1.0,7.654041507008254e-17
1145000,0.01325810303049531,9.999869276640636,1.0,1.0,7.658384999936854e-17
1150000,0.013262677372160737,9.999868714576726,1.0,1.0,7.662718324544157e-17
1155000,0.013267172764041033,9.999868152572109,1.0,1.0,7.667041619371104e-17
1160000,0.013271590514641407,9.999867590626781,1.0,1.0,7.671355021073733e-17
1165000,0.0132759319220961,9.999867028740743,1.0,1.0,7.675658664450595e-17
1170000,0.013280198254692423,9.999866466913991,1.0,1.0,7.679952682481035e-17
1175000,0.013284390760108941,9.999865905146521,1.0,1.0,7.684237206356272e-17
1180000,0.013288510661574479,9.999865343438332,1.0,1.0,7.688512365512288e-17
1185000,0.013292559174942719,9.99986478178942,1.0,1.0,7.692778287653405e-17
1190000,0.01329653748120914,9.99986422019978,1.0,1.0,7.697035098794664e-17
1195000,0.013300446751825278,9.999863658669412,1.0,1.0,7.701282923280521e-17
1200000,0.01330428813438656,9.999863097198308,1.0,1.0,7.705521883819674e-17
1205000,0.013308062755019827,9.999862535786463,1.0,1.0,7.70975210151374e-17
1210000,0.01331177172364524,9.999861974433873,1.0,1.0,7.713973695882494e-17
1215000,0.013315416135194687,9.999861413140533,1.0,1.0,7.718186784889687e-17
1220000,0.01331899706485314,9.999860851906433,1.0,1.0,7.72239148497415e-17
1225000,0.01332251556148535,9.999860290731572,1.0,1.0,7.726587911075453e-17
1230000,0.013325972672174495,9.99985972961594,1.0,1.0,7.730776176652358e-17
1235000,0.01332936941077534,9.999859168559531,1.0,1.0,7.734956393718737e-17
1240000,0.0133327067868671,9.99985860756234,1.0,1.0,7.739128672857252e-17
1245000,0.01333598578580571,9.999858046624356,1.0,1.0,7.743293123252171e-17
1250000,0.013339207376931988,9.999857485745572,1.0,1.0,7.747449852708098e-17
1255000,0.013342372515756765,9.99985692492598,1.0,1.0,7.75159896767379e-17
1260000,0.013345482140351278,9.999856364165572,1.0,1.0,7.755740573264672e-17
1265000,0.013348537175735798,9.999855803464339,1.0,1.0,7.759874773284261e-17
1270000,0.013351538528202124,9.999855242822271,1.0,1.0,7.764001670247317e-17
1275000,0.01335448709083995,9.99985468223936,1.0,1.0,7.76812136540071e-17
1280000,0.013357383743261267,9.999854121715595,1.0,1.0,7.772233958742178e-17
1285000,0.013360229347084113,9.999853561250967,1.0,1.0,7.776339549044052e-17
1290000,0.013363024753498038,9.999853000845466,1.0,1.0,7.780438233869243e-17
