Timestep (s),Sum Voltage (V),Carry Out Voltage (V),Sum Error Rate (Dimless),Carry Out Error Rate (Dimless),Energy Dissipation (J)
0,0.00022681358649718133,9.99999923999354,-4.440892098500626e-16,9.992007221626409e-16,1.2600307201316988e-20
5000,0.00044980974511729394,9.9999984799885,-2.220446049250313e-16,9.992007221626409e-16,2.5198509901037636e-20
10000,0.0006690536190953944,9.99999771998627,-2.220446049250313e-16,8.881784197001252e-16,3.7794661926280535e-20
15000,0.0008846092117892532,9.999996959988218,-2.220446049250313e-16,1.1102230246251565e-15,5.0388804452674576e-20
20000,0.001096539411639408,9.999996199995689,-2.220446049250313e-16,1.1102230246251565e-15,6.29809777548673e-20
25000,0.0013049060036354105,9.999995440010004,-4.440892098500626e-16,1.1102230246251565e-15,7.557122116391145e-20
30000,0.0015097696928625362,9.999994680032465,-2.220446049250313e-16,9.992007221626409e-16,8.815957323707737e-20
35000,0.001711190132515794,9.99999392006435,-2.220446049250313e-16,1.1102230246251565e-15,1.0074607155065707e-19
40000,0.0019092259350223725,9.999993160106916,-2.220446049250313e-16,9.992007221626409e-16,1.1333075290657663e-19
45000,0.002103934687977122,9.999992400161402,-2.220446049250313e-16,1.1102230246251565e-15,1.2591365336581053e-19
50000,0.0022953729793354044,9.999991640229021,-2.220446049250313e-16,1.2212453270876722e-15,1.3849480812349561e-19
55000,0.002483596414220079,9.999990880310973,-2.220446049250313e-16,9.992007221626409e-16,1.5107425162103002e-19
60000,0.0026686596341464483,9.99999012040843,-4.440892098500626e-16,1.2212453270876722e-15,1.6365201752737875e-19
65000,0.002850616329880503,9.999989360522552,-2.220446049250313e-16,1.1102230246251565e-15,1.762281388424951e-19
70000,0.003029519259461836,9.999988600654472,-2.220446049250313e-16,1.1102230246251565e-15,1.8880264780377406e-19
75000,0.0032054202687558523,9.99998784080531,-2.220446049250313e-16,1.1102230246251565e-15,2.0137557596864604e-19
80000,0.0033783703033479274,9.999987080976169,-2.220446049250313e-16,9.992007221626409e-16,2.1394695421803099e-19
85000,0.0035484194295329536,9.999986321168125,-4.440892098500626e-16,1.1102230246251565e-15,2.2651681275146765e-19
90000,0.0037156168467214804,9.999985561382244,0.0,9.992007221626409e-16,2.3908518109779754e-19
95000,0.0038800109029368222,9.999984801619572,-2.220446049250313e-16,1.1102230246251565e-15,2.516520882301439e-19
100000,0.0040416491121153895,9.999984041881136,-4.440892098500626e-16,1.1102230246251565e-15,2.642175624832371e-19
105000,0.004200578168665064,9.999983282167948,-4.440892098500626e-16,1.1102230246251565e-15,2.767816315546631e-19
110000,0.004356843957552303,9.999982522481002,-2.220446049250313e-16,9.992007221626409e-16,2.8934432254374253e-19
115000,0.004510491576228419,9.999981762821275,-2.220446049250313e-16,1.1102230246251565e-15,3.01905662070401e-19
120000,0.004661565341319855,9.999981003189728,-2.220446049250313e-16,9.992007221626409e-16,3.1446567611246493e-19
125000,0.004810108808880662,9.999980243587306,-2.220446049250313e-16,1.1102230246251565e-15,3.270243900934135e-19
130000,0.004956164785798199,9.99997948401494,-2.220446049250313e-16,9.992007221626409e-16,3.3958182894685324e-19
135000,0.00509977534298902,9.999978724473543,-2.220446049250313e-16,9.992007221626409e-16,3.5213801709556036e-19
140000,0.005240981826880684,9.999977964964014,-2.220446049250313e-16,9.992007221626409e-16,3.6469297845845173e-19
145000,0.005379824868467249,9.999977205487237,-2.220446049250313e-16,8.881784197001252e-16,3.7724673641498105e-19
150000,0.005516344409625758,9.999976446044082,0.0,8.881784197001252e-16,3.8979931386906554e-19
155000,0.005650579702276043,9.999975686635402,0.0,9.992007221626409e-16,4.023507332532296e-19
160000,0.00578256932482144,9.999974927262038,0.0,1.2212453270876722e-15,4.1490101657403156e-19
165000,0.005912351194237509,9.999974167924815,0.0,7.771561172376096e-16,4.274501853393711e-19
170000,0.006039962577188203,9.999973408624546,-2.220446049250313e-16,1.1102230246251565e-15,4.39998260655871e-19
175000,0.006165440101443423,9.99997264936203,0.0,1.2212453270876722e-15,4.525452631725254e-19
180000,0.006288819772373651,9.999971890138054,0.0,9.992007221626409e-16,4.650912131219314e-19
185000,0.006410136971845339,9.999971130953389,0.0,9.992007221626409e-16,4.776361303230181e-19
190000,0.006529426480274627,9.999970371808795,0.0,1.1102230246251565e-15,4.901800341999716e-19
195000,0.006646722486306338,9.999969612705017,0.0,8.881784197001252e-16,5.027229438054441e-19
200000,0.006762058589334217,9.999968853642791,-2.220446049250313e-16,1.1102230246251565e-15,5.152648777606165e-19
205000,0.006875467816695719,9.999968094622838,-4.440892098500626e-16,8.881784197001252e-16,5.278058543490255e-19
210000,0.006986982631940579,9.99996733564587,-2.220446049250313e-16,8.881784197001252e-16,5.403458914680705e-19
215000,0.007096634947459668,9.999966576712584,-2.220446049250313e-16,8.881784197001252e-16,5.528850066774444e-19
220000,0.007204456126462828,9.999965817823666,-2.220446049250313e-16,8.881784197001252e-16,5.654232171511157e-19
225000,0.00731047699702585,9.999965058979791,-2.220446049250313e-16,1.1102230246251565e-15,5.779605397552287e-19
230000,0.007414727866232414,9.999964300181622,-2.220446049250313e-16,9.992007221626409e-16,5.904969909866224e-19
235000,0.007517238521378302,9.999963541429812,-2.220446049250313e-16,1.2212453270876722e-15,6.030325870415024e-19
240000,0.007618038243825977,9.999962782725003,0.0,9.992007221626409e-16,6.155673438081881e-19
245000,0.007717155816728743,9.999962024067825,0.0,9.992007221626409e-16,6.281012768325456e-19
250000,0.007814619533951376,9.999961265458898,-2.220446049250313e-16,9.992007221626409e-16,6.406344013864477e-19
255000,0.007910457204222584,9.999960506898834,-2.220446049250313e-16,9.992007221626409e-16,6.531667323767706e-19
260000,0.008004696165270435,9.99995974838823,-2.220446049250313e-16,8.881784197001252e-16,6.656982844737695e-19
265000,0.0080973632951228,9.999958989927677,0.0,1.1102230246251565e-15,6.782290720688699e-19
270000,0.008188485009434004,9.999958231517754,0.0,9.992007221626409e-16,6.907591092188755e-19
275000,0.008278087275924047,9.99995747315903,-2.220446049250313e-16,9.992007221626409e-16,7.032884097568417e-19
280000,0.008366195623475525,9.999956714852066,-2.220446049250313e-16,9.992007221626409e-16,7.158169871940039e-19
285000,0.00845283514362475,9.999955956597415,-2.220446049250313e-16,1.1102230246251565e-15,7.283448548376148e-19
290000,0.0085380305055858,9.999955198395616,-2.220446049250313e-16,9.992007221626409e-16,7.408720256886268e-19
295000,0.008621805961502766,9.999954440247203,-2.220446049250313e-16,1.1102230246251565e-15,7.533985125300033e-19
300000,0.008704185350806647,9.999953682152698,-2.220446049250313e-16,1.1102230246251565e-15,7.65924327913707e-19
305000,0.008785192102274875,9.999952924112618,-2.220446049250313e-16,9.992007221626409e-16,7.784494840802589e-19
310000,0.008864849260130177,9.999952166127468,-2.220446049250313e-16,1.1102230246251565e-15,7.909739930928279e-19
315000,0.008943179468479605,9.999951408197747,-2.220446049250313e-16,1.1102230246251565e-15,8.034978668028893e-19
320000,0.009020204991225592,9.999950650323942,-2.220446049250313e-16,9.992007221626409e-16,8.160211167737833e-19
325000,0.0090959477150775,9.999949892506537,-2.220446049250313e-16,8.881784197001252e-16,8.285437543938254e-19
330000,0.009170429159601798,9.999949134746002,-2.220446049250313e-16,1.2212453270876722e-15,8.410657907668566e-19
335000,0.009243670472654304,9.999948377042804,0.0,8.881784197001252e-16,8.535872368820929e-19
340000,0.009315692452280757,9.9999476193974,0.0,1.1102230246251565e-15,8.661081034550532e-19
345000,0.00938651553771347,9.999946861810237,-2.220446049250313e-16,9.992007221626409e-16,8.786284010291673e-19
350000,0.009456159828369238,9.99994610428176,-2.220446049250313e-16,9.992007221626409e-16,8.91148139882289e-19
355000,0.009524645083705617,9.999945346812401,0.0,9.992007221626409e-16,9.036673301868991e-19
360000,0.00959199072244138,9.99994458940259,0.0,8.881784197001252e-16,9.161859818933073e-19
365000,0.009658215844771553,9.999943832052745,0.0,9.992007221626409e-16,9.287041047763214e-19
370000,0.00972333922297195,9.999943074763278,-2.220446049250313e-16,1.1102230246251565e-15,9.412217083862102e-19
375000,0.009787379313775211,9.999942317534597,0.0,9.992007221626409e-16,9.53738802102831e-19
380000,0.009850354261462501,9.999941560367098,-2.220446049250313e-16,9.992007221626409e-16,9.662553951412115e-19
385000,0.009912281904184797,9.999940803261175,0.0,9.992007221626409e-16,9.78771496540026e-19
390000,0.009973179777741426,9.999940046217214,-2.220446049250313e-16,8.881784197001252e-16,9.912871152158173e-19
395000,0.010033065128115748,9.999939289235593,0.0,8.881784197001252e-16,1.0038022598489373e-18
400000,0.010091954903737847,9.999938532316687,0.0,9.992007221626409e-16,1.0163169389829054e-18
405000,0.01014986577197949,9.99993777546086,0.0,1.2212453270876722e-15,1.0288311609943444e-18
410000,0.010206814111450656,9.999937018668472,0.0,9.992007221626409e-16,1.0413449341727516e-18
415000,0.010262816038495007,9.999936261939878,0.0,8.881784197001252e-16,1.0538582665479847e-18
420000,0.010317887388343458,9.999935505275426,-2.220446049250313e-16,1.1102230246251565e-15,1.0663711660459216e-18
425000,0.010372043728083489,9.999934748675457,1.1102230246251565e-16,1.1102230246251565e-15,1.0788836405047886e-18
430000,0.010425300367914862,9.99993399214031,-2.220446049250313e-16,9.992007221626409e-16,1.0913956975388237e-18
435000,0.010477672356776106,9.999933235670312,0.0,9.992007221626409e-16,1.1039073446323278e-18
440000,0.01052917449588574,9.99993247926579,0.0,9.992007221626409e-16,1.1164185891565244e-18
445000,0.010579821329383678,9.999931722927064,0.0,7.771561172376096e-16,1.1289294383623193e-18
450000,0.010629627161516568,9.999930966654446,-2.220446049250313e-16,1.1102230246251565e-15,1.1414398993032723e-18
455000,0.010678606054522784,9.999930210448246,-2.220446049250313e-16,1.1102230246251565e-15,1.1539499790046343e-18
460000,0.010726771834676413,9.999929454308768,0.0,9.992007221626409e-16,1.1664596842332384e-18
465000,0.010774138094177982,9.99992869823631,0.0,1.1102230246251565e-15,1.1789690217730617e-18
470000,0.010820718201912959,9.999927942231166,-2.220446049250313e-16,1.1102230246251565e-15,1.1914779982088132e-18
475000,0.01086652529572397,9.999927186293622,0.0,9.992007221626409e-16,1.203986619941956e-18
480000,0.010911572296328676,9.999926430423962,-2.220446049250313e-16,9.992007221626409e-16,1.2164948933892832e-18
485000,0.010955871907993058,9.999925674622466,-2.220446049250313e-16,9.992007221626409e-16,1.2290028247402424e-18
490000,0.010999436616498274,9.999924918889405,-2.220446049250313e-16,1.1102230246251565e-15,1.2415104201719288e-18
495000,0.011042278702491698,9.999924163225051,-2.220446049250313e-16,8.881784197001252e-16,1.2540176856904291e-18
500000,0.011084410238630223,9.999923407629666,-2.220446049250313e-16,1.1102230246251565e-15,1.266524627137044e-18
505000,0.011125843095542638,9.99992265210351,-2.220446049250313e-16,8.881784197001252e-16,1.2790312503695808e-18
510000,0.011166588945473323,9.99992189664684,-2.220446049250313e-16,9.992007221626409e-16,1.2915375610783974e-18
515000,0.011206659262042338,9.999921141259907,0.0,9.992007221626409e-16,1.3040435648435099e-18
520000,0.011246065329122928,9.999920385942957,0.0,1.1102230246251565e-15,1.316549267153218e-18
525000,0.011284818238811053,9.999919630696231,-2.220446049250313e-16,9.992007221626409e-16,1.3290546734113587e-18
530000,0.011322928900161285,9.99991887551997,0.0,1.1102230246251565e-15,1.3415597889119938e-18
535000,0.011360408034466531,9.999918120414408,0.0,9.992007221626409e-16,1.3540646188684726e-18
540000,0.011397266190260588,9.999917365379774,0.0,9.992007221626409e-16,1.3665691683618622e-18
545000,0.011433513731311061,9.999916610416296,-2.220446049250313e-16,1.1102230246251565e-15,1.3790734424147144e-18
550000,0.011469160854078595,9.999915855524195,0.0,9.992007221626409e-16,1.391577445939587e-18
555000,0.0115042175786662,9.999915100703689,0.0,8.881784197001252e-16,1.4040811837805485e-18
560000,0.01153869376275771,9.999914345954993,0.0,1.2212453270876722e-15,1.4165846607100704e-18
565000,0.011572599093634854,9.99991359127832,-2.220446049250313e-16,1.1102230246251565e-15,1.4290878814002813e-18
570000,0.011605943098901774,9.999912836673875,0.0,1.1102230246251565e-15,1.4415908504102121e-18
575000,0.011638735146406592,9.999912082141865,-2.220446049250313e-16,9.992007221626409e-16,1.4540935722570107e-18
580000,0.011670984447422119,9.999911327682488,0.0,1.1102230246251565e-15,1.4665960513691301e-18
585000,0.01170270005756677,9.999910573295942,-2.220446049250313e-16,9.992007221626409e-16,1.4790982920582162e-18
590000,0.011733890882679315,9.999909818982418,-2.220446049250313e-16,9.992007221626409e-16,1.491600298613302e-18
595000,0.011764565678764298,9.99990906474211,0.0,1.1102230246251565e-15,1.5041020752359159e-18
600000,0.011794733052328144,9.9999083105752,0.0,9.992007221626409e-16,1.5166036260258507e-18
605000,0.011824401471018164,9.999907556481878,-2.220446049250313e-16,8.881784197001252e-16,1.5291049550423293e-18
610000,0.011853579252914996,9.99990680246232,0.0,9.992007221626409e-16,1.5416060662477316e-18
615000,0.011882274586723673,9.999906048516705,0.0,9.992007221626409e-16,1.5541069635449978e-18
620000,0.011910495514660438,9.999905294645204,0.0,9.992007221626409e-16,1.5666076507878982e-18
625000,0.011938249953483837,9.999904540847991,0.0,9.992007221626409e-16,1.5791081317289824e-18
630000,0.01196554568093518,9.999903787125234,-2.220446049250313e-16,9.992007221626409e-16,1.5916084100626557e-18
635000,0.011992390346711804,9.999903033477098,-2.220446049250313e-16,8.881784197001252e-16,1.604108489415781e-18
640000,0.012018791471014154,9.999902279903747,0.0,1.1102230246251565e-15,1.6166083733987342e-18
645000,0.012044756452204911,9.999901526405338,1.1102230246251565e-16,9.992007221626409e-16,1.6291080654780975e-18
650000,0.012070292559783737,9.999900772982029,-2.220446049250313e-16,8.881784197001252e-16,1.6416075691043056e-18
655000,0.01209540694529182,9.999900019633973,0.0,1.1102230246251565e-15,1.6541068876997473e-18
660000,0.012120106640027396,9.999899266361322,0.0,1.1102230246251565e-15,1.6666060245604083e-18
665000,0.012144398555746927,9.999898513164224,-2.220446049250313e-16,8.881784197001252e-16,1.6791049116935493e-18
670000,0.012168289493407796,9.999897760042826,-2.220446049250313e-16,8.881784197001252e-16,1.6916036204319571e-18
675000,0.012191786132713824,9.999897006997271,-2.220446049250313e-16,9.992007221626409e-16,1.7041021539274286e-18
680000,0.012214895046593708,9.9998962540277,-2.220446049250313e-16,1.1102230246251565e-15,1.7166005152880014e-18
685000,0.012237622699915403,9.999895501134251,0.0,9.992007221626409e-16,1.7290987075926995e-18
690000,0.012259975444813347,9.999894748317061,-2.220446049250313e-16,9.992007221626409e-16,1.7415967338764678e-18
695000,0.012281959531654361,9.999893995576263,1.1102230246251565e-16,9.992007221626409e-16,1.7540945970898534e-18
700000,0.012303581102571279,9.99989324291199,-2.220446049250313e-16,1.1102230246251565e-15,1.7665923001588176e-18
705000,0.012324846197827841,9.999892490324367,0.0,9.992007221626409e-16,1.779089845930416e-18
710000,0.01234576076051193,9.999891737813524,-2.220446049250313e-16,9.992007221626409e-16,1.7915872372116848e-18
715000,0.012366330629495707,9.999890985379585,0.0,8.881784197001252e-16,1.804084476792271e-18
720000,0.012386561550705595,9.99989023302267,1.1102230246251565e-16,1.1102230246251565e-15,1.8165815673442e-18
725000,0.01240645916851801,9.999889480742901,-2.220446049250313e-16,8.881784197001252e-16,1.8290785115498437e-18
730000,0.012426029038174753,9.999888728540396,0.0,1.1102230246251565e-15,1.8415753120627304e-18
735000,0.012445276617164339,9.99988797641527,0.0,9.992007221626409e-16,1.8540719714529387e-18
740000,0.012464207277296937,9.999887224367637,0.0,9.992007221626409e-16,1.8665684922236805e-18
745000,0.012482826296352495,9.999886472397607,-2.220446049250313e-16,1.2212453270876722e-15,1.8790648768725758e-18
750000,0.012501138867682348,9.999885720505294,0.0,1.2212453270876722e-15,1.8915611278700246e-18
755000,0.01251915009640147,9.9998849686908,0.0,8.881784197001252e-16,1.9040572475633225e-18
760000,0.012536865000120747,9.999884216954236,0.0,9.992007221626409e-16,1.9165532383540722e-18
765000,0.01255428851467851,9.999883465295703,0.0,8.881784197001252e-16,1.929049102549486e-18
770000,0.01257142549281673,9.999882713715303,0.0,1.1102230246251565e-15,1.941544842457894e-18
775000,0.012588280710244839,9.999881962213138,1.1102230246251565e-16,1.1102230246251565e-15,1.9540404602697424e-18
780000,0.012604858855188665,9.999881210789304,-2.220446049250313e-16,9.992007221626409e-16,1.966535958225315e-18
785000,0.012621164543419877,9.999880459443899,0.0,9.992007221626409e-16,1.9790313384864917e-18
790000,0.012637202314926533,9.999879708177017,-2.220446049250313e-16,9.992007221626409e-16,1.9915266031623796e-18
795000,0.012652976628641089,9.999878956988752,1.1102230246251565e-16,9.992007221626409e-16,2.004021754342616e-18
800000,0.012668491872308518,9.999878205879195,0.0,9.992007221626409e-16,2.0165167940883285e-18
805000,0.012683752360394426,9.999877454848436,-2.220446049250313e-16,1.1102230246251565e-15,2.029011724463608e-18
810000,0.012698762335199835,9.999876703896561,-2.220446049250313e-16,9.992007221626409e-16,2.0415065473866976e-18
815000,0.012713525964876803,9.99987595302366,-2.220446049250313e-16,9.992007221626409e-16,2.0540012648407957e-18
820000,0.012728047354476659,9.999875202229815,-2.220446049250313e-16,9.992007221626409e-16,2.0664958787269865e-18
825000,0.012742330535925519,9.99987445151511,-2.220446049250313e-16,8.881784197001252e-16,2.078990390946362e-18
830000,0.012756379475962165,9.999873700879629,0.0,1.1102230246251565e-15,2.0914848033367733e-18
835000,0.012770198072167348,9.99987295032345,-2.220446049250313e-16,9.992007221626409e-16,2.10397911772641e-18
840000,0.012783790162432664,9.999872199846653,0.0,1.1102230246251565e-15,2.116473335889177e-18
845000,0.012797159518352991,9.999871449449314,-2.220446049250313e-16,8.881784197001252e-16,2.1289674595968652e-18
850000,0.012810309843778019,9.99987069913151,0.0,1.2212453270876722e-15,2.1414614905907865e-18
855000,0.012823244787958014,9.999869948893314,-2.220446049250313e-16,1.1102230246251565e-15,2.153955430549383e-18
860000,0.012835967931869467,9.999869198734803,1.1102230246251565e-16,1.1102230246251565e-15,2.166449281149341e-18
865000,0.012848482805711384,9.999868448656045,0.0,9.992007221626409e-16,2.1789430440329225e-18
870000,0.012860792877691186,9.999867698657113,1.1102230246251565e-16,1.1102230246251565e-15,2.1914365767472706e-18
875000,0.012872901549846614,9.999866948738074,-2.220446049250313e-16,1.2212453270876722e-15,2.203930018985743e-18
880000,0.012884812180228881,9.999866198898996,-2.220446049250313e-16,9.992007221626409e-16,2.2164233723470053e-18
885000,0.012896528064537095,9.999865449139946,-2.220446049250313e-16,1.1102230246251565e-15,2.2289166384173063e-18
890000,0.012908052439832667,9.999864699460991,0.0,8.881784197001252e-16,2.241409818771791e-18
895000,0.01291938850006915,9.999863949862192,0.0,9.992007221626409e-16,2.2539029149126882e-18
900000,0.012930539373891495,9.999863200343613,-2.220446049250313e-16,9.992007221626409e-16,2.2663959283624228e-18
905000,0.012941508145112243,9.999862450905317,-2.220446049250313e-16,1.1102230246251565e-15,2.278888860597799e-18
910000,0.0129522978428331,9.999861701547363,0.0,9.992007221626409e-16,2.291381713084233e-18
915000,0.012962911448190381,9.999860952269811,1.1102230246251565e-16,1.1102230246251565e-15,2.3038744872427466e-18
920000,0.012973351892845436,9.99986020307272,0.0,9.992007221626409e-16,2.31636718447382e-18
