Timestep (s),Sum Voltage (V),Carry Out Voltage (V),Sum Error Rate (Dimless),Carry Out Error Rate (Dimless),Energy Dissipation (J)
0,0.00022681358649718133,0.00022681376024999002,-4.440892098500626e-16,1.0,5.671291238942468e-19
5000,0.00045013514300826045,0.00044980700435564983,-2.220446049250313e-16,1.0,1.1288043781688414e-18
10000,0.0006696926728248548,0.0006690449312441762,-4.440892098500626e-16,1.0,1.6851249045476058e-18
15000,0.0008855503791563643,0.0008845915953871954,-4.440892098500626e-16,1.0,2.236187716409971e-18
20000,0.001097771345998364,0.0010965099307533085,-2.220446049250313e-16,1.0,2.782087745536697e-18
25000,0.0013064175479957055,0.0013048617765431725,-2.220446049250313e-16,1.0,3.322917892861706e-18
30000,0.0015115498809967027,0.0015097078908458603,-2.220446049250313e-16,1.0,3.858769077807858e-18
35000,0.0017132281847770825,0.0017111079721886593,-4.440892098500626e-16,1.0,4.389730286277153e-18
40000,0.0019115112486779789,0.0019091206786738747,-4.440892098500626e-16,1.0,4.915888617418288e-18
45000,0.0021064568429190354,0.0021038036477308703,-2.220446049250313e-16,1.0,5.437329329154298e-18
50000,0.0022981217354082375,0.002295213513802764,-2.220446049250313e-16,1.0,5.954135882311657e-18
55000,0.002486561697515804,0.0024834059287528903,-4.440892098500626e-16,1.0,6.46638998387541e-18
60000,0.002671831538235904,0.002668435577513693,-4.440892098500626e-16,1.0,6.974171628885063e-18
65000,0.0028539851216069483,0.002850356190387326,-4.440892098500626e-16,1.0,7.47755914124507e-18
70000,0.003033075365408269,0.0030292205740685093,-2.220446049250313e-16,1.0,7.976629213606954e-18
75000,0.0032091542735931174,0.0032050806132464856,-2.220446049250313e-16,1.0,8.471456946052484e-18
80000,0.003382272955767477,0.0033779872999755633,-4.440892098500626e-16,1.0,8.962115883779139e-18
85000,0.0035524816266869824,0.003547990737814584,-2.220446049250313e-16,1.0,9.448678053987654e-18
90000,0.003719829639867002,0.003715140165117891,-2.220446049250313e-16,1.0,9.931214001526743e-18
95000,0.003884365494007741,0.0038794839742809007,-2.220446049250313e-16,1.0,1.0409792823815898e-17
100000,0.004046136844901109,0.00404106971525959,-2.220446049250313e-16,1.0,1.0884482204888018e-17
105000,0.004205190535232446,0.00419994411750991,-2.220446049250313e-16,1.0,1.1355348448423273e-17
110000,0.004361572593206541,0.004356153109414461,-2.220446049250313e-16,1.0,1.182245650995802e-17
115000,0.0045153282491368334,0.004509741821587637,-2.220446049250313e-16,1.0,1.2285870028467204e-17
120000,0.004666501962861572,0.004660754611175184,-4.440892098500626e-16,1.0,1.2745651356847504e-17
125000,0.004815137424497958,0.00480923506847714,0.0,1.0,1.3201861591818088e-17
130000,0.004961277571410514,0.0049552260343764315,-2.220446049250313e-16,1.0,1.3654560603073567e-17
135000,0.005104964599217533,0.0050987696128001305,0.0,1.0,1.410380706165117e-17
140000,0.00524623998602221,0.0052399071866499145,-2.220446049250313e-16,1.0,1.454965846746897e-17
145000,0.005385144490661144,0.005378679422664193,-2.220446049250313e-16,1.0,1.4992171269686546e-17
150000,0.005521718175370348,0.005515126291896,0.0,1.0,1.5431400624570726e-17
155000,0.005656000412454654,0.005649287083054879,-2.220446049250313e-16,1.0,1.5867400678743148e-17
160000,0.005788029895985753,0.0057812004010469814,1.1102230246251565e-16,1.0,1.6300224511827037e-17
165000,0.005917844662930702,0.00591090419679507,-2.220446049250313e-16,1.0,1.6729924160669125e-17
170000,0.006045482095603956,0.006038435770291488,-2.220446049250313e-16,1.0,1.7156550643235814e-17
175000,0.006170978932971158,0.006163831781298459,0.0,1.0,1.7580153981786692e-17
180000,0.006294371287069766,0.006287128258477133,0.0,1.0,1.8000783225623828e-17
185000,0.006415694654421618,0.0064083606165864955,-2.220446049250313e-16,1.0,1.841848647303228e-17
190000,0.006534983921401347,0.006527563668874965,0.0,1.0,1.883331089295662e-17
195000,0.006652273377571033,0.006644771629765407,0.0,1.0,1.92453027459864e-17
200000,0.006767596729253849,0.006760018126080882,-2.220446049250313e-16,1.0,1.9654507404979468e-17
205000,0.0068809871060105275,0.006873336215262983,0.0,1.0,2.0060969374981444e-17
210000,0.006992477065942313,0.006984758386970281,0.0,1.0,2.046473231294604e-17
215000,0.0071020986181285365,0.007094316577929594,-2.220446049250313e-16,1.0,2.0865839046723766e-17
220000,0.007209883224992352,0.007202042181056946,0.0,1.0,2.126433159377042e-17
225000,0.007315861814147395,0.007307966052732643,0.0,1.0,2.166025117934507e-17
230000,0.0074200647799839625,0.007412118520517534,0.0,1.0,2.2053638254393462e-17
235000,0.007522522001961792,0.007514529404056676,0.0,1.0,2.2444532512785156e-17
240000,0.007623262854710299,0.007615228002428371,-2.220446049250313e-16,1.0,2.2832972908377505e-17
245000,0.007722316205897341,0.007714243129217709,-2.220446049250313e-16,1.0,2.3218997671592127e-17
250000,0.007819710431940772,0.007811603097864725,0.0,1.0,2.3602644325648177e-17
255000,0.007915473434948049,0.007907335744793648,0.0,1.0,2.3983949702305324e-17
260000,0.008009632633828295,0.008001468434140433,-2.220446049250313e-16,1.0,2.43629499574308e-17
265000,0.008102214984733246,0.008094028060098532,0.0,1.0,2.473968058611887e-17
270000,0.008193246985881598,0.008185041062672252,0.0,1.0,2.511417643744254e-17
275000,0.008282754686223125,0.008274533435186698,0.0,1.0,2.5486471728911385e-17
280000,0.008370763690759224,0.008362530727419102,0.0,1.0,2.5856600060634116e-17
285000,0.008457299170862121,0.008449058054152928,0.0,1.0,2.6224594429143015e-17
290000,0.00854238586610548,0.008534140106292974,0.0,1.0,2.6590487240958576e-17
295000,0.008626048108523965,0.008617801154759372,0.0,1.0,2.695431032570102e-17
300000,0.008708309804260373,0.008700065061292046,-2.220446049250313e-16,1.0,2.731609494919086e-17
305000,0.008789194457918297,0.00878095528024245,-2.220446049250313e-16,1.0,2.7675871826018848e-17
310000,0.008868725183730514,0.0088604948698098,-2.220446049250313e-16,1.0,2.8033671131946153e-17
315000,0.008946924694212573,0.008938706495309985,-2.220446049250313e-16,1.0,2.838952251610982e-17
320000,0.009023815325346398,0.009015612445961111,0.0,1.0,2.8743455112835447e-17
325000,0.00909941902902014,0.009091234623620258,-2.220446049250313e-16,1.0,2.90954975533902e-17
330000,0.00917375738456077,0.009165594564750348,-2.220446049250313e-16,1.0,2.944567797728629e-17
335000,0.009246851607024556,0.009238713443322147,0.0,1.0,2.979402404348113e-17
340000,0.009318722556731497,0.009310612071130916,-2.220446049250313e-16,1.0,3.014056294135657e-17
345000,0.009389390738084558,0.009381310911192075,-2.220446049250313e-16,1.0,3.048532140142641e-17
350000,0.009458876309671758,0.009450830079226043,0.0,1.0,3.08283257058782e-17
355000,0.009527199093518415,0.009519189349655567,-2.220446049250313e-16,1.0,3.116960169888059e-17
360000,0.009594378569423937,0.009586408165694784,-2.220446049250313e-16,1.0,3.1509174796763466e-17
365000,0.009660433894287833,0.009652505639663803,0.0,1.0,3.1847069997929795e-17
370000,0.009725383893837689,0.00971750056348467,0.0,1.0,3.218331189260563e-17
375000,0.00978924708431273,0.009781411408400892,0.0,1.0,3.2517924672441176e-17
380000,0.009852041663902189,0.009844256340682343,-2.220446049250313e-16,1.0,3.2850932139884773e-17
385000,0.009913785527163719,0.009906053215409834,1.1102230246251565e-16,1.0,3.318235771751575e-17
390000,0.009974496262325204,0.009966819585124843,1.1102230246251565e-16,1.0,3.3512224457126597e-17
395000,0.010034191166472532,0.010026572708683158,-4.440892098500626e-16,1.0,3.384055504857136e-17
400000,0.01009288724488305,0.0100853295549999,0.0,1.0,3.41673718287134e-17
405000,0.0101506012111349,0.010143106806289374,-2.220446049250313e-16,1.0,3.44926967900187e-17
410000,0.010207349499085134,0.010199920861326595,0.0,1.0,3.4816551589137697e-17
415000,0.010263148265586861,0.010255787849081006,0.0,1.0,3.5138957555265727e-17
420000,0.010318013400905707,0.010310723616207244,0.0,1.0,3.5459935698519445e-17
425000,0.010371960517107093,0.010364743748761208,0.0,1.0,3.577950671808048e-17
430000,0.01042500497498834,0.010417863575331926,0.0,1.0,3.6097691010259304e-17
435000,0.010477161863173146,0.010470098157434712,-2.220446049250313e-16,1.0,3.641450867663339e-17
440000,0.010528446029292806,0.010521462311164506,-2.220446049250313e-16,1.0,3.672997953176537e-17
445000,0.010578872063697628,0.010571970595078101,0.0,1.0,3.704412311117707e-17
450000,0.010628454315458414,0.010621637330578465,-4.440892098500626e-16,1.0,3.7356958678992464e-17
455000,0.010677206886117693,0.010670476597413095,0.0,1.0,3.7668505235692023e-17
460000,0.010725143647964655,0.010718502233044453,0.0,1.0,3.797878152575943e-17
465000,0.010772278233604136,0.010765727846982058,-2.220446049250313e-16,1.0,3.8287806045193044e-17
470000,0.010818624049379813,0.01081216681643626,0.0,1.0,3.859559704911296e-17
475000,0.010864194275074708,0.010857832299083506,-2.220446049250313e-16,1.0,3.8902172559198616e-17
480000,0.010909001872450546,0.010902737227221022,-2.220446049250313e-16,1.0,3.92075503712096e-17
485000,0.010953059578325354,0.010946894320445318,0.0,1.0,3.951174806245324e-17
490000,0.010996379924907816,0.010990316077837752,0.0,1.0,3.981478299928097e-17
495000,0.011038975229397535,0.011033014793470559,-2.220446049250313e-16,1.0,4.011667234450121e-17
500000,0.011080857599237784,0.011075002556223802,0.0,1.0,4.041743306495832e-17
505000,0.01112203894025273,0.011116291246603703,0.0,1.0,4.071708193897457e-17
510000,0.011162530959102395,0.011156892551801113,0.0,1.0,4.101563556398425e-17
515000,0.011202345171286768,0.011196817960463727,-2.220446049250313e-16,1.0,4.1313110364148826e-17
520000,0.011241492889055496,0.011236078770242295,-2.220446049250313e-16,1.0,4.160952259809858e-17
525000,0.011279985239536414,0.011274686086408513,0.0,1.0,4.190488836666406e-17
530000,0.011317833168744145,0.01131265082842217,0.0,1.0,4.219922362085634e-17
535000,0.011355047426152577,0.011349983736764746,0.0,1.0,4.249254416988875e-17
540000,0.011391638594549423,0.01138669536414415,0.0,1.0,4.2784865689329895e-17
545000,0.011427617066289726,0.011422796093359226,1.1102230246251565e-16,1.0,4.307620372951492e-17
550000,0.011462993072414707,0.01145829613293369,-2.220446049250313e-16,1.0,4.336657372399939e-17
555000,0.011497776664253672,0.011493205517591143,-2.220446049250313e-16,1.0,4.36559909984239e-17
560000,0.01153197772466965,0.011527534117587394,-2.220446049250313e-16,1.0,4.3944470779488235e-17
565000,0.011565605975578278,0.01156129162851067,-2.220446049250313e-16,1.0,4.4232028204275083e-17
570000,0.011598670973074189,0.011594487597842098,0.0,1.0,4.451867832979339e-17
575000,0.011631182112940786,0.011627131401730075,-2.220446049250313e-16,1.0,4.4804436143049374e-17
580000,0.011663148636430623,0.011659232264195227,0.0,1.0,4.5089316571288264e-17
585000,0.011694579625398877,0.011690799254190917,-2.220446049250313e-16,1.0,4.53733344929054e-17
590000,0.011725484010816667,0.011721841288105458,0.0,1.0,4.565650474862045e-17
595000,0.01175587057416271,0.011752367136863224,-2.220446049250313e-16,1.0,4.5938842153399065e-17
600000,0.011785747956921657,0.011782385419684656,0.0,1.0,4.6220361508821274e-17
605000,0.011815124640786615,0.011811904616186062,0.0,1.0,4.650107761633069e-17
610000,0.011844008981597652,0.011840933061802747,0.0,1.0,4.678100529093905e-17
615000,0.011872409183303434,0.011869478951449871,0.0,1.0,4.706015937617933e-17
620000,0.01190033332254241,0.011897550344659303,0.0,1.0,4.733855475952949e-17
625000,0.011927789330991409,0.011925155166024203,-2.220446049250313e-16,1.0,4.7616206389369064e-17
630000,0.011954785014895672,0.011952301209222844,0.0,1.0,4.7893129292709424e-17
635000,0.01198132804855014,0.011978996133371342,-2.220446049250313e-16,1.0,4.8169338594493283e-17
640000,0.012007425973744266,0.0120052474733818,0.0,1.0,4.8444849538290294e-17
645000,0.012033086210608637,0.012031062641783904,1.1102230246251565e-16,1.0,4.8719677508635034e-17
650000,0.012058316053459358,0.012056448918174046,-2.220446049250313e-16,1.0,4.899383805526497e-17
655000,0.01208312267290423,0.012081413469309972,-2.220446049250313e-16,1.0,4.926734691936665e-17
660000,0.012107513124167997,0.012105963333148437,-2.220446049250313e-16,1.0,4.954022006233191e-17
665000,0.012131494339494297,0.01213010543969476,1.1102230246251565e-16,1.0,4.981247369702459e-17
670000,0.012155073139052083,0.012153846597540461,-2.220446049250313e-16,1.0,5.0084124322089566e-17
675000,0.012178256226565508,0.012177193506835705,0.0,1.0,5.0355188759802124e-17
680000,0.012201050194261437,0.0122001527518738,0.0,1.0,5.062568419767314e-17
685000,0.012223461525091303,0.01222273080479373,0.0,1.0,5.0895628234577695e-17
690000,0.012245496592675851,0.012244934032838906,0.0,1.0,5.1165038931826036e-17
695000,0.012267161666214693,0.012266768697226276,0.0,1.0,5.143393487015831e-17
700000,0.012288462903335478,0.012288240956223552,0.0,1.0,5.170233521337817e-17
705000,0.012309406369884772,0.012309356866065298,0.0,1.0,5.197025977956738e-17
710000,0.012329998025338967,0.01233012237579749,1.1102230246251565e-16,1.0,5.2237729121384813e-17
715000,0.012350243722767048,0.012350543341640959,0.0,1.0,5.250476461648918e-17
720000,0.012370149227686188,0.012370625519348203,1.1102230246251565e-16,1.0,5.277138857006487e-17
725000,0.012389720204981565,0.012390374569202495,-2.220446049250313e-16,1.0,5.303762433138881e-17
730000,0.01240896222262254,0.012409796059139007,-2.220446049250313e-16,1.0,5.330349642692166e-17
735000,0.012427880764171517,0.012428895459669905,-2.220446049250313e-16,1.0,5.3569030712760754e-17
740000,0.012446481206850712,0.012447678155417887,0.0,1.0,5.3834254550279903e-17
745000,0.012464768849514196,0.012466149439506793,1.1102230246251565e-16,1.0,5.409898394196503e-17
750000,0.012482748904312698,0.012484314517049181,0.0,1.0,5.436286709871419e-17
755000,0.01250042648441062,0.012502178506657519,-2.220446049250313e-16,1.0,5.462576435423828e-17
760000,0.012517806630301184,0.012519746439524228,0.0,1.0,5.488770314430282e-17
765000,0.01253489429184626,0.012537023268067165,0.0,1.0,5.514870920699094e-17
770000,0.012551694338282886,0.01255401386087331,-2.220446049250313e-16,1.0,5.540880676273803e-17
775000,0.012568211553268909,0.012570722997467039,-2.220446049250313e-16,1.0,5.566801867055007e-17
780000,0.012584450645680076,0.012587155391270493,0.0,1.0,5.592636656388356e-17
785000,0.012600416245887364,0.012603315666704855,0.0,1.0,5.618387096961247e-17
790000,0.012616112907079693,0.012619208378656117,-2.220446049250313e-16,1.0,5.644055141230144e-17
795000,0.012631545102329361,0.012634838001470326,0.0,1.0,5.669642650624451e-17
800000,0.012646717231326468,0.012650208937050657,0.0,1.0,5.695151403653244e-17
805000,0.012661633626003735,0.012665325515501378,-2.220446049250313e-16,1.0,5.720583103106314e-17
810000,0.01267629854016722,0.012680191990963676,-2.220446049250313e-16,1.0,5.745939382464286e-17
815000,0.012690716154701052,0.012694812551043782,0.0,1.0,5.77122181159799e-17
820000,0.012704890587259956,0.012709191312571387,0.0,1.0,5.796431901875253e-17
825000,0.012718825882278077,0.012723332322485646,-2.220446049250313e-16,1.0,5.821571110742125e-17
830000,0.012732526017435002,0.012737239568335244,-2.220446049250313e-16,1.0,5.846640845831444e-17
835000,0.012745994908768944,0.012750916958438475,1.1102230246251565e-16,1.0,5.871642468671357e-17
840000,0.012759236399712987,0.012764368344467085,-2.220446049250313e-16,1.0,5.896577298036442e-17
845000,0.012772254275088879,0.012777597517068986,0.0,1.0,5.921446612967427e-17
850000,0.012785052254507084,0.01279060819615022,-2.220446049250313e-16,1.0,5.946251655532022e-17
855000,0.012797633993699289,0.012803404045371319,-2.220446049250313e-16,1.0,5.970993633309513e-17
860000,0.012810003094108532,0.012815988666553315,0.0,1.0,5.995673721668058e-17
865000,0.01282216308663022,0.012828365603213165,-2.220446049250313e-16,1.0,6.020293065839813e-17
870000,0.01283411745306545,0.012840538335256715,0.0,1.0,6.044852782812396e-17
875000,0.012845869610793204,0.01285251029142323,1.1102230246251565e-16,1.0,6.069353963063926e-17
880000,0.012857422919439343,0.012864284840346487,0.0,1.0,6.093797672149036e-17
885000,0.012868780695780704,0.012875865295695585,0.0,1.0,6.118184952155754e-17
890000,0.012879946185340213,0.012887254916707244,-2.220446049250313e-16,1.0,6.142516823050301e-17
895000,0.012890922582916974,0.01289845690513236,1.1102230246251565e-16,1.0,6.166794283912444e-17
900000,0.012901713039628105,0.012909474418890217,-2.220446049250313e-16,1.0,6.191018314058928e-17
905000,0.01291232064233335,0.012920310553874615,0.0,1.0,6.215189874107788e-17
910000,0.012922748432577262,0.012930968360286914,-2.220446049250313e-16,1.0,6.239309906935495e-17
915000,0.012932999398591142,0.012941450836751469,-2.220446049250313e-16,1.0,6.263379338578032e-17
920000,0.012943076484087618,0.012951760931086694,0.0,1.0,6.287399079053615e-17
925000,0.012952982574349119,0.01296190154541577,-2.220446049250313e-16,1.0,6.311370023133821e-17
930000,0.01296272051700276,0.012971875535632924,-2.220446049250313e-16,1.0,6.335293051048613e-17
935000,0.012972293103022328,0.012981685701930003,0.0,1.0,6.359169029153531e-17
940000,0.012981703085997704,0.012991334805336322,-2.220446049250313e-16,1.0,6.38299881052858e-17
945000,0.012990953166206468,0.013000825561801274,-2.220446049250313e-16,1.0,6.406783235554743e-17
950000,0.013000046000003002,0.013010160640032086,0.0,1.0,6.430523132434649e-17
955000,0.01300898420352384,0.01301934266594675,0.0,1.0,6.454219317683412e-17
960000,0.013017770346761388,0.013028374224648313,-2.220446049250313e-16,1.0,6.477872596581541e-17
965000,0.013026406957522624,0.013037257852421233,-2.220446049250313e-16,1.0,6.501483763594142e-17
970000,0.013034896517929308,0.01304599605092323,-2.220446049250313e-16,1.0,6.525053602768844e-17
975000,0.013043241479994689,0.01305459127535072,0.0,1.0,6.548582888087988e-17
980000,0.013051444239917902,0.013063045945871467,0.0,1.0,6.572072383813735e-17
985000,0.013059507161860384,0.013071362440837104,-2.220446049250313e-16,1.0,6.595522844795326e-17
990000,0.013067432572616099,0.013079543094320424,0.0,1.0,6.618935016767197e-17
995000,0.013075222752940268,0.01308759020933257,2.220446049250313e-16,1.0,6.64230963660295e-17
1000000,0.013082879949501133,0.013095506050074692,0.0,1.0,6.66564743257449e-17
1005000,0.013090406378009897,0.013103292841764976,-2.220446049250313e-16,1.0,6.688949124573537e-17
1010000,0.013097804206150594,0.013110952772648198,-2.220446049250313e-16,1.0,6.71221542432993e-17
1015000,0.013105075571176787,0.01311848800008168,0.0,1.0,6.735447035596905e-17
1020000,0.013112222576158345,0.013125900639322617,0.0,1.0,6.758644654336258e-17
1025000,0.013119247289351975,0.01313319277795605,0.0,1.0,6.781808968874737e-17
1030000,0.013126151737141298,0.013140366463148645,0.0,1.0,6.8049406600641e-17
1035000,0.013132937921774947,0.013147423714924378,-2.220446049250313e-16,1.0,6.82804040140434e-17
1040000,0.013139607802346897,0.013154366516076446,0.0,1.0,6.85110885917577e-17
1045000,0.01314616331834192,0.013161196818552863,-2.220446049250313e-16,1.0,6.874146692541713e-17
1050000,0.013152606366880006,0.01316791654257377,-2.220446049250313e-16,1.0,6.897154553653413e-17
1055000,0.013158938813999132,0.013174527578689263,0.0,1.0,6.920133087738166e-17
1060000,0.013165162499378016,0.013181031782842599,-2.220446049250313e-16,1.0,6.943082933173744e-17
1065000,0.01317127922875455,0.013187430988417256,0.0,1.0,6.966004721558929e-17
1070000,0.01317729077938923,0.013193726988650631,0.0,1.0,6.988899077772836e-17
1075000,0.013183198896402243,0.013199921556406305,-2.220446049250313e-16,1.0,7.011766620020354e-17
1080000,0.013189005302199783,0.013206016432404934,-2.220446049250313e-16,1.0,7.034607959876212e-17
1085000,0.013194711677601565,0.013212013332460188,0.0,1.0,7.057423702318792e-17
1090000,0.013200319690428836,0.013217913938908173,-2.220446049250313e-16,1.0,7.080214445751963e-17
