Timestep (s),Sum Voltage (V),Carry Out Voltage (V),Sum Error Rate (Dimless),Carry Out Error Rate (Dimless),Energy Dissipation (J)
0,9.983268638466665,9.999999427186427,1.0,1.1102230246251565e-15,2.0998627118060232e-17
5000,9.966814753459671,9.999998854374072,1.0,8.881784197001252e-16,2.935151781211825e-17
10000,9.950633749471661,9.999998281563983,1.0,9.992007221626409e-16,3.441610756025812e-17
15000,9.934721109346503,9.999997708757189,1.0,1.2212453270876722e-15,3.8051816800112574e-17
20000,9.919072391206615,9.9999971359547,1.0,9.992007221626409e-16,4.0894034642123e-17
25000,9.90368322715981,9.999996563157517,1.0,7.771561172376096e-16,4.32332352060534e-17
30000,9.88854932203084,9.999995990366614,1.0,1.1102230246251565e-15,4.522587182713487e-17
35000,9.87366645211669,9.999995417582953,1.0,9.992007221626409e-16,4.696562192359169e-17
40000,9.859030463965448,9.999994844807484,1.0,9.992007221626409e-16,4.851290388671258e-17
45000,9.8446372731779,9.999994272041134,1.0,1.1102230246251565e-15,4.9908897965334246e-17
50000,9.830482863231468,9.999993699284817,1.0,1.1102230246251565e-15,5.118289724765438e-17
55000,9.816563284325913,9.999993126539433,1.0,8.881784197001252e-16,5.2356461528848954e-17
60000,9.802874652250367,9.999992553805868,1.0,1.1102230246251565e-15,5.344590682761929e-17
65000,9.789413147271098,9.999991981084987,1.0,1.1102230246251565e-15,5.4463870654778896e-17
70000,9.776175013039667,9.999991408377648,1.0,1.1102230246251565e-15,5.542033539061972e-17
75000,9.763156555520897,9.999990835684688,1.0,1.1102230246251565e-15,5.632332004168006e-17
80000,9.750354141940342,9.999990263006936,1.0,9.992007221626409e-16,5.717936122018015e-17
85000,9.737764199750744,9.9999896903452,1.0,1.1102230246251565e-15,5.799385583333999e-17
90000,9.725383215617132,9.999989117700283,1.0,1.1102230246251565e-15,5.877131050023798e-17
95000,9.713207734420044,9.999988545072965,1.0,9.992007221626409e-16,5.951552651962608e-17
100000,9.701234358276631,9.999987972464018,1.0,8.881784197001252e-16,6.022973934459162e-17
105000,9.68945974557916,9.9999873998742,1.0,9.992007221626409e-16,6.091672532912221e-17
110000,9.677880610050602,9.999986827304259,1.0,9.992007221626409e-16,6.157888452621692e-17
115000,9.666493719816925,9.999986254754926,1.0,1.1102230246251565e-15,6.221830569153642e-17
120000,9.655295896495774,9.99998568222692,1.0,9.992007221626409e-16,6.28368178806386e-17
125000,9.644284014301148,9.999985109720953,1.0,1.1102230246251565e-15,6.343603181740964e-17
130000,9.63345499916379,9.999984537237717,1.0,1.1102230246251565e-15,6.401737336765561e-17
135000,9.622805827867024,9.999983964777897,1.0,9.992007221626409e-16,6.458211085450287e-17
140000,9.61233352719758,9.999983392342166,1.0,8.881784197001252e-16,6.513137752303814e-17
145000,9.602035173111245,9.999982819931185,1.0,1.2212453270876722e-15,6.566619014959979e-17
150000,9.591907889913026,9.999982247545603,1.0,1.1102230246251565e-15,6.618746456120634e-17
155000,9.581948849451427,9.999981675186058,1.0,9.992007221626409e-16,6.669602865917537e-17
160000,9.57215527032673,9.99998110285318,1.0,1.1102230246251565e-15,6.719263341233478e-17
165000,9.562524417112893,9.999980530547585,1.0,1.1102230246251565e-15,6.767796218713505e-17
170000,9.55305359959282,9.99997995826988,1.0,8.881784197001252e-16,6.81526387068963e-17
175000,9.543740172006784,9.999979386020659,1.0,8.881784197001252e-16,6.86172338743877e-17
180000,9.53458153231373,9.99997881380051,1.0,9.992007221626409e-16,6.907227164661926e-17
185000,9.525575121465186,9.999978241610009,1.0,9.992007221626409e-16,6.951823411516239e-17
190000,9.516718422691605,9.99997766944972,1.0,9.992007221626409e-16,6.995556591728924e-17
195000,9.508008960800838,9.999977097320201,1.0,9.992007221626409e-16,7.038467808067284e-17
200000,9.499444301488563,9.999976525221998,1.0,1.1102230246251565e-15,7.080595138663659e-17
205000,9.49102205066039,9.999975953155648,1.0,8.881784197001252e-16,7.121973932229617e-17
210000,9.482739853765523,9.99997538112168,1.0,8.881784197001252e-16,7.162637068048556e-17
215000,9.474595395141627,9.99997480912061,1.0,8.881784197001252e-16,7.202615185645411e-17
220000,9.466586397370863,9.999974237152951,1.0,1.1102230246251565e-15,7.241936888294264e-17
225000,9.458710620646723,9.999973665219203,1.0,9.992007221626409e-16,7.280628923842824e-17
230000,9.450965862151552,9.99997309331986,1.0,8.881784197001252e-16,7.31871634581796e-17
235000,9.443349955444603,9.999972521455403,1.0,1.1102230246251565e-15,7.356222657348902e-17
240000,9.43586076986033,9.999971949626309,1.0,9.992007221626409e-16,7.393169940047278e-17
245000,9.428496209916808,9.999971377833045,1.0,1.1102230246251565e-15,7.429578969696832e-17
250000,9.421254214734077,9.999970806076073,1.0,1.1102230246251565e-15,7.465469320343602e-17
255000,9.414132757462252,9.99997023435584,1.0,9.992007221626409e-16,7.500859458153358e-17
260000,9.407129844719183,9.999969662672793,1.0,9.992007221626409e-16,7.53576682621967e-17
265000,9.400243516037579,9.999969091027365,1.0,1.2212453270876722e-15,7.570207921362052e-17
270000,9.393471843321283,9.999968519419987,1.0,1.1102230246251565e-15,7.604198363791057e-17
275000,9.386812930310713,9.999967947851077,1.0,9.992007221626409e-16,7.637752960442234e-17
280000,9.380264912057164,9.99996737632105,1.0,1.1102230246251565e-15,7.670885762643858e-17
285000,9.373825954405905,9.999966804830313,1.0,8.881784197001252e-16,7.703610118731596e-17
290000,9.367494253487878,9.999966233379263,1.0,9.992007221626409e-16,7.735938722130956e-17
295000,9.361268035219842,9.999965661968293,1.0,9.992007221626409e-16,7.767883384105198e-17
300000,9.355145554812848,9.999965090597787,1.0,9.992007221626409e-16,7.799454321244938e-17
305000,9.349125096288901,9.999964519268124,1.0,9.992007221626409e-16,7.830662506403636e-17
310000,9.343204972005596,9.999963947979676,1.0,9.992007221626409e-16,7.861518408201668e-17
315000,9.33738352218871,9.99996337673281,1.0,1.2212453270876722e-15,7.892032022632074e-17
320000,9.331659114472485,9.999962805527883,1.0,9.992007221626409e-16,7.922212902167003e-17
325000,9.326030143447603,9.999962234365247,1.0,1.1102230246251565e-15,7.952070182613822e-17
330000,9.32049503021658,9.99996166324525,1.0,1.1102230246251565e-15,7.981612607916246e-17
335000,9.315052221956586,9.999961092168231,1.0,1.1102230246251565e-15,8.010848553102069e-17
340000,9.309700191489464,9.999960521134525,1.0,8.881784197001252e-16,8.039786045530774e-17
345000,9.304437436858878,9.99995995014446,1.0,1.2212453270876722e-15,8.068432784598532e-17
350000,9.299262480914448,9.999959379198357,1.0,1.1102230246251565e-15,8.096796160031367e-17
355000,9.294173870902776,9.999958808296535,1.0,9.992007221626409e-16,8.124883268892012e-17
360000,9.289170178065204,9.999958237439303,1.0,9.992007221626409e-16,8.152700931398887e-17
365000,9.284249997242256,9.999957666626969,1.0,9.992007221626409e-16,8.18025570566815e-17
370000,9.279411946484593,9.99995709585983,1.0,1.1102230246251565e-15,8.207553901460322e-17
375000,9.27465466667038,9.999956525138185,1.0,9.992007221626409e-16,8.234601593011208e-17
380000,9.26997682112898,9.999955954462319,1.0,9.992007221626409e-16,8.261404631022494e-17
385000,9.265377095270855,9.99995538383252,1.0,8.881784197001252e-16,8.287968653878787e-17
390000,9.26085419622358,9.999954813249063,1.0,1.1102230246251565e-15,8.314299098145893e-17
395000,9.256406852473857,9.999954242712226,1.0,9.992007221626409e-16,8.340401208415082e-17
400000,9.252033813515407,9.999953672222277,1.0,9.992007221626409e-16,8.366280046529334e-17
405000,9.247733849502712,9.99995310177948,1.0,9.992007221626409e-16,8.39194050025058e-17
410000,9.243505750910428,9.999952531384096,1.0,9.992007221626409e-16,8.417387291403223e-17
415000,9.239348328198416,9.999951961036379,1.0,9.992007221626409e-16,8.44262498352746e-17
420000,9.2352604114823,9.99995139073658,1.0,9.992007221626409e-16,8.467657989087851e-17
425000,9.231240850209439,9.999950820484944,1.0,1.1102230246251565e-15,8.492490576260069e-17
430000,9.227288512840254,9.999950250281714,1.0,1.2212453270876722e-15,8.517126875328476e-17
435000,9.223402286534789,9.999949680127125,1.0,8.881784197001252e-16,8.54157088472241e-17
440000,9.219581076844428,9.999949110021412,1.0,8.881784197001252e-16,8.56582647671454e-17
445000,9.215823807408702,9.9999485399648,1.0,9.992007221626409e-16,8.589897402805312e-17
450000,9.21212941965708,9.999947969957516,1.0,1.1102230246251565e-15,8.61378729881164e-17
455000,9.208496872515658,9.99994739999978,1.0,9.992007221626409e-16,8.637499689681112e-17
460000,9.204925142118686,9.999946830091806,1.0,9.992007221626409e-16,8.661037994052033e-17
465000,9.201413221524843,9.99994626023381,1.0,9.992007221626409e-16,8.6844055285731e-17
470000,9.19796012043818,9.999945690425996,1.0,9.992007221626409e-16,8.707605511995728e-17
475000,9.194564864933644,9.999945120668572,1.0,9.992007221626409e-16,8.73064106905784e-17
480000,9.191226497187134,9.999944550961738,1.0,9.992007221626409e-16,8.753515234171436e-17
485000,9.187944075209979,9.99994398130569,1.0,1.1102230246251565e-15,8.776230954922003e-17
490000,9.184716672587799,9.99994341170062,1.0,9.992007221626409e-16,8.79879109539588e-17
495000,9.181543378223662,9.999942842146721,1.0,1.1102230246251565e-15,8.821198439344222e-17
500000,9.178423296085455,9.999942272644176,1.0,1.1102230246251565e-15,8.843455693193263e-17
505000,9.175355544957423,9.999941703193171,1.0,9.992007221626409e-16,8.86556548890855e-17
510000,9.172339258195779,9.999941133793882,1.0,1.1102230246251565e-15,8.887530386724585e-17
515000,9.169373583488355,9.999940564446488,1.0,1.1102230246251565e-15,8.909352877746553e-17
520000,9.166457682618189,9.99993999515116,1.0,9.992007221626409e-16,8.931035386429194e-17
525000,9.163590731231006,9.999939425908066,1.0,1.2212453270876722e-15,8.952580272943345e-17
530000,9.160771918606525,9.999938856717375,1.0,9.992007221626409e-16,8.973989835433834e-17
535000,9.158000447433526,9.999938287579248,1.0,7.771561172376096e-16,8.9952663121765e-17
540000,9.155275533588622,9.999937718493847,1.0,7.771561172376096e-16,9.016411883637068e-17
545000,9.152596405918665,9.999937149461328,1.0,8.881784197001252e-16,9.037428674443199e-17
550000,9.14996230602673,9.999936580481844,1.0,9.992007221626409e-16,9.058318755265898e-17
555000,9.147372488061626,9.999936011555548,1.0,8.881784197001252e-16,9.079084144623239e-17
560000,9.144826218510863,9.999935442682585,1.0,1.1102230246251565e-15,9.099726810603371e-17
565000,9.142322775997028,9.999934873863102,1.0,9.992007221626409e-16,9.120248672519307e-17
570000,9.139861451077516,9.999934305097243,1.0,1.1102230246251565e-15,9.140651602489091e-17
575000,9.137441546047542,9.999933736385145,1.0,1.1102230246251565e-15,9.160937426954706e-17
580000,9.135062374746406,9.999933167726947,1.0,9.992007221626409e-16,9.181107928135063e-17
585000,9.13272326236695,9.999932599122783,1.0,9.992007221626409e-16,9.201164845423077e-17
590000,9.130423545268135,9.999932030572783,1.0,9.992007221626409e-16,9.221109876723493e-17
595000,9.12816257079071,9.999931462077079,1.0,1.1102230246251565e-15,9.24094467973896e-17
600000,9.125939697075918,9.999930893635796,1.0,9.992007221626409e-16,9.260670873205696e-17
605000,9.12375429288718,9.999930325249057,1.0,1.1102230246251565e-15,9.280290038077379e-17
610000,9.121605737434717,9.999929756916986,1.0,1.1102230246251565e-15,9.29980371866844e-17
615000,9.119493420203058,9.999929188639701,1.0,1.1102230246251565e-15,9.319213423748362e-17
620000,9.117416740781389,9.99992862041732,1.0,9.992007221626409e-16,9.3385206275975e-17
625000,9.115375108696684,9.999928052249956,1.0,9.992007221626409e-16,9.357726771020806e-17
630000,9.113367943249601,9.999927484137723,1.0,9.992007221626409e-16,9.376833262325873e-17
635000,9.111394673353066,9.99992691608073,1.0,9.992007221626409e-16,9.395841478261535e-17
640000,9.109454737373524,9.999926348079086,1.0,9.992007221626409e-16,9.41475276492577e-17
645000,9.107547582974787,9.999925780132894,1.0,9.992007221626409e-16,9.433568438637998e-17
650000,9.105672666964477,9.99992521224226,1.0,1.1102230246251565e-15,9.452289786778913e-17
655000,9.10382945514298,9.999924644407285,1.0,9.992007221626409e-16,9.470918068604362e-17
660000,9.1020174221549,9.999924076628067,1.0,9.992007221626409e-16,9.489453535524566e-17
665000,9.100236048597814,9.999923508904706,1.0,1.1102230246251565e-15,9.507898371425116e-17
670000,9.098484826437161,9.999922941237296,1.0,8.881784197001252e-16,9.526253755768055e-17
675000,9.096763256050322,9.99992237362593,1.0,1.1102230246251565e-15,9.544520842858796e-17
680000,9.095070846087628,9.999921806070699,1.0,1.1102230246251565e-15,9.562700762525221e-17
685000,9.093407113335667,9.999921238571693,1.0,1.1102230246251565e-15,9.580794620773319e-17
690000,9.09177158258283,9.999920671128999,1.0,1.1102230246251565e-15,9.598803500421396e-17
695000,9.090163786487075,9.999920103742703,1.0,8.881784197001252e-16,9.616728461711983e-17
700000,9.088583265445882,9.99991953641289,1.0,1.1102230246251565e-15,9.634570542904335e-17
705000,9.087029567468335,9.99991896913964,1.0,1.1102230246251565e-15,9.652330760846915e-17
710000,9.085502248049323,9.999918401923036,1.0,9.992007221626409e-16,9.670010111530964e-17
715000,9.084000870045816,9.999917834763156,1.0,1.1102230246251565e-15,9.687609570626555e-17
720000,9.082525003555169,9.999917267660077,1.0,9.992007221626409e-16,9.705130094001078e-17
725000,9.081074225795447,9.999916700613873,1.0,9.992007221626409e-16,9.722572618221259e-17
730000,9.079648120987713,9.99991613362462,1.0,1.1102230246251565e-15,9.739938061039273e-17
735000,9.07824628024026,9.999915566692387,1.0,8.881784197001252e-16,9.757227321863122e-17
740000,9.076868301434752,9.999914999817246,1.0,9.992007221626409e-16,9.774441282212893e-17
745000,9.07551378911425,9.999914432999267,1.0,9.992007221626409e-16,9.791580806162521e-17
750000,9.074182354373072,9.999913866238517,1.0,9.992007221626409e-16,9.808646740768123e-17
755000,9.072873614748474,9.99991329953506,1.0,8.881784197001252e-16,9.825639916483003e-17
760000,9.071587194114125,9.999912732888962,1.0,8.881784197001252e-16,9.842561147560155e-17
765000,9.070322722575332,9.999912166300286,1.0,1.1102230246251565e-15,9.859411232442692e-17
770000,9.069079836365997,9.999911599769092,1.0,1.1102230246251565e-15,9.876190954142669e-17
775000,9.06785817774727,9.999911033295442,1.0,1.1102230246251565e-15,9.892901080608128e-17
780000,9.066657394907882,9.999910466879394,1.0,9.992007221626409e-16,9.90954236508002e-17
785000,9.065477141866113,9.999909900521004,1.0,1.1102230246251565e-15,9.926115546438184e-17
790000,9.064317078373389,9.99990933422033,1.0,9.992007221626409e-16,9.942621349537514e-17
795000,9.06317686981946,9.999908767977425,1.0,9.992007221626409e-16,9.959060485534095e-17
800000,9.062056187139149,9.999908201792344,1.0,9.992007221626409e-16,9.975433652202143e-17
805000,9.060954706720638,9.999907635665139,1.0,9.992007221626409e-16,9.991741534242111e-17
810000,9.059872110315274,9.999907069595858,1.0,1.1102230246251565e-15,1.0007984803579651e-16
815000,9.05880808494885,9.999906503584553,1.0,8.881784197001252e-16,1.0024164119656387e-16
820000,9.057762322834371,9.999905937631272,1.0,1.1102230246251565e-15,1.0040280129712633e-16
825000,9.05673452128624,9.999905371736062,1.0,9.992007221626409e-16,1.0056333469061846e-16
830000,9.055724382635875,9.99990480589897,1.0,9.992007221626409e-16,1.0072324761358056e-16
835000,9.054731614148718,9.999904240120038,1.0,1.1102230246251565e-15,1.0088254618855431e-16
840000,9.053755927942609,9.999903674399313,1.0,1.1102230246251565e-15,1.010412364266123e-16
845000,9.052797040907512,9.999903108736834,1.0,1.1102230246251565e-15,1.011993242298142e-16
850000,9.051854674626567,9.999902543132645,1.0,1.1102230246251565e-15,1.0135681539360016e-16
855000,9.050928555298446,9.999901977586786,1.0,8.881784197001252e-16,1.0151371560911829e-16
860000,9.050018413660995,9.999901412099296,1.0,1.1102230246251565e-15,1.0167003046549192e-16
865000,9.049123984916127,9.999900846670213,1.0,9.992007221626409e-16,1.0182576545202389e-16
870000,9.048245008655973,9.999900281299574,1.0,1.1102230246251565e-15,1.0198092596034597e-16
875000,9.047381228790236,9.999899715987416,1.0,1.1102230246251565e-15,1.0213551728651003e-16
880000,9.04653239347476,9.999899150733773,1.0,8.881784197001252e-16,1.0228954463302498e-16
885000,9.045698255041268,9.99989858553868,1.0,1.1102230246251565e-15,1.0244301311084254e-16
890000,9.044878569928272,9.99989802040217,1.0,9.992007221626409e-16,1.0259592774128872e-16
895000,9.044073098613119,9.999897455324275,1.0,1.1102230246251565e-15,1.0274829345794967e-16
900000,9.043281605545156,9.999896890305028,1.0,1.1102230246251565e-15,1.0290011510850746e-16
905000,9.042503859080012,9.999896325344457,1.0,1.1102230246251565e-15,1.030513974565286e-16
910000,9.041739631414961,9.999895760442593,1.0,1.1102230246251565e-15,1.0320214518320931e-16
915000,9.040988698525345,9.999895195599462,1.0,1.2212453270876722e-15,1.0335236288907656e-16
920000,9.040250840102063,9.999894630815096,1.0,9.992007221626409e-16,1.0350205509564548e-16
925000,9.039525839490087,9.999894066089519,1.0,1.1102230246251565e-15,1.0365122624703942e-16
930000,9.038813483627994,9.999893501422758,1.0,9.992007221626409e-16,1.0379988071156401e-16
935000,9.038113562988496,9.999892936814836,1.0,9.992007221626409e-16,1.0394802278324896e-16
940000,9.037425871519966,9.999892372265782,1.0,9.992007221626409e-16,1.0409565668334786e-16
945000,9.036750206588914,9.999891807775615,1.0,9.992007221626409e-16,1.0424278656180226e-16
950000,9.036086368923428,9.99989124334436,1.0,9.992007221626409e-16,1.0438941649867352e-16
955000,9.035434162557543,9.999890678972038,1.0,1.1102230246251565e-15,1.045355505055364e-16
960000,9.034793394776539,9.99989011465867,1.0,1.2212453270876722e-15,1.046811925268409e-16
965000,9.034163876063134,9.999889550404278,1.0,9.992007221626409e-16,1.0482634644124264e-16
970000,9.033545420044579,9.99988898620888,1.0,1.1102230246251565e-15,1.0497101606289974e-16
975000,9.032937843440612,9.999888422072496,1.0,9.992007221626409e-16,1.051152051427406e-16
980000,9.032340966012294,9.999887857995144,1.0,1.1102230246251565e-15,1.052589173697012e-16
985000,9.031754610511676,9.999887293976842,1.0,8.881784197001252e-16,1.0540215637193466e-16
990000,9.03117860263231,9.999886730017606,1.0,1.1102230246251565e-15,1.0554492571799091e-16
995000,9.03061277096057,9.999886166117452,1.0,1.1102230246251565e-15,1.0568722891797023e-16
1000000,9.030056946927784,9.999885602276397,1.0,1.1102230246251565e-15,1.0582906942465027e-16
1005000,9.029510964763162,9.999885038494453,1.0,9.992007221626409e-16,1.0597045063458697e-16
1010000,9.028974661447496,9.999884474771635,1.0,9.992007221626409e-16,1.061113758891898e-16
1015000,9.028447876667634,9.999883911107958,1.0,1.1102230246251565e-15,1.0625184847577441e-16
1020000,9.027930452771702,9.999883347503433,1.0,1.2212453270876722e-15,1.0639187162858829e-16
1025000,9.027422234725071,9.999882783958073,1.0,1.1102230246251565e-15,1.0653144852981699e-16
1030000,9.026923070067054,9.999882220471891,1.0,8.881784197001252e-16,1.06670582310565e-16
1035000,9.026432808868321,9.999881657044897,1.0,9.992007221626409e-16,1.0680927605181599e-16
1040000,9.025951303689016,9.9998810936771,1.0,8.881784197001252e-16,1.0694753278537108e-16
1045000,9.02547840953757,9.999880530368511,1.0,1.2212453270876722e-15,1.0708535549476735e-16
1050000,9.025013983830195,9.999879967119139,1.0,9.992007221626409e-16,1.0722274711617475e-16
1055000,9.024557886351062,9.999879403928993,1.0,7.771561172376096e-16,1.0735971053927436e-16
1060000,9.02410997921311,9.99987884079808,1.0,9.992007221626409e-16,1.0749624860811747e-16
1065000,9.023670126819539,9.99987827772641,1.0,1.1102230246251565e-15,1.0763236412196413e-16
1070000,9.023238195825916,9.999877714713987,1.0,8.881784197001252e-16,1.0776805983610611e-16
