Timestep (s),Sum Voltage (V),Carry Out Voltage (V),Sum Error Rate (Dimless),Carry Out Error Rate (Dimless),Energy Dissipation (J)
0,0.00022681358649718133,9.99999923999354,-4.440892098500626e-16,9.992007221626409e-16,1.0544781487558064e-17
5000,0.00044980974511729394,9.9999984799885,-2.220446049250313e-16,9.992007221626409e-16,1.4722497238737553e-17
10000,0.0006690536190953944,9.99999771998627,-2.220446049250313e-16,8.881784197001252e-16,1.7260353821285376e-17
15000,0.0008846092142965698,9.999996959988218,-2.220446049250313e-16,1.1102230246251565e-15,1.9086469846797755e-17
20000,0.0010965394129703828,9.999996199995689,-4.440892098500626e-16,1.1102230246251565e-15,2.05177395920264e-17
25000,0.001304906002390977,9.999995440010004,-4.440892098500626e-16,1.1102230246251565e-15,2.169902743106217e-17
30000,0.0015097696901756289,9.999994680032465,-2.220446049250313e-16,9.992007221626409e-16,2.2708360442064092e-17
35000,0.0017111901299608626,9.99999392006435,-2.220446049250313e-16,1.1102230246251565e-15,2.3592456274691226e-17
40000,0.0019092259313937185,9.999993160106916,-2.220446049250313e-16,9.992007221626409e-16,2.4381442774795805e-17
45000,0.002103934684137793,9.999992400161402,-2.220446049250313e-16,1.1102230246251565e-15,2.5095850644605633e-17
50000,0.0022953729766015487,9.999991640229021,-2.220446049250313e-16,1.2212453270876722e-15,2.5750280014917916e-17
55000,0.002483596413367359,9.999990880310973,-2.220446049250313e-16,9.992007221626409e-16,2.6355472412432264e-17
60000,0.0026686596352202227,9.99999012040843,-4.440892098500626e-16,1.2212453270876722e-15,2.691955317591815e-17
65000,0.0028506163318046777,9.999989360522552,-2.220446049250313e-16,1.1102230246251565e-15,2.7448812043824066e-17
70000,0.0030295192620013603,9.999988600654472,-4.440892098500626e-16,1.1102230246251565e-15,2.794821391453897e-17
75000,0.003205420270603908,9.99998784080531,-2.220446049250313e-16,1.1102230246251565e-15,2.842174404260208e-17
80000,0.0033783703063582807,9.999987080976167,-2.220446049250313e-16,8.881784197001252e-16,2.8872648068963776e-17
85000,0.003548419432648894,9.999986321168123,-2.220446049250313e-16,9.992007221626409e-16,2.930360304742494e-17
90000,0.0037156168508940854,9.999985561382243,-2.220446049250313e-16,9.992007221626409e-16,2.9716841926720544e-17
95000,0.003880010908984068,9.99998480161957,-2.220446049250313e-16,9.992007221626409e-16,3.0114245869878933e-17
100000,0.004041649117213314,9.999984041881135,-2.220446049250313e-16,8.881784197001252e-16,3.04974138690722e-17
105000,0.00420057817035515,9.999983282167946,-2.220446049250313e-16,1.1102230246251565e-15,3.086771602598942e-17
110000,0.004356843956695339,9.999982522481,-2.220446049250313e-16,9.992007221626409e-16,3.122633487908231e-17
115000,0.004510491575260909,9.999981762821273,-2.220446049250313e-16,1.1102230246251565e-15,3.1574297848761037e-17
120000,0.004661565341415382,9.999981003189726,-2.220446049250313e-16,9.992007221626409e-16,3.191250299078991e-17
125000,0.004810108809582445,9.999980243587304,-2.220446049250313e-16,8.881784197001252e-16,3.224173964350138e-17
130000,0.004956164788022538,9.999979484014938,-2.220446049250313e-16,1.1102230246251565e-15,3.256270513409581e-17
135000,0.00509977534530813,9.999978724473541,-4.440892098500626e-16,8.881784197001252e-16,3.287601841072942e-17
140000,0.00524098182754911,9.999977964964012,-4.440892098500626e-16,9.992007221626409e-16,3.3182231252990956e-17
145000,0.0053798248700233755,9.999977205487236,-2.220446049250313e-16,8.881784197001252e-16,3.3481837557757166e-17
150000,0.005516344411165641,9.99997644604408,-2.220446049250313e-16,1.1102230246251565e-15,3.377528108243064e-17
155000,0.005650579702641709,9.9999756866354,0.0,1.1102230246251565e-15,3.406296194226338e-17
160000,0.00578256932240508,9.999974927262036,-2.220446049250313e-16,9.992007221626409e-16,3.4345242093970315e-17
165000,0.00591235119134198,9.999974167924814,-2.220446049250313e-16,9.992007221626409e-16,3.462244998908965e-17
170000,0.00603996257270402,9.999973408624545,-2.220446049250313e-16,8.881784197001252e-16,3.489488454303293e-17
175000,0.006165440096039785,9.999972649362029,-2.220446049250313e-16,1.1102230246251565e-15,3.516281853653026e-17
180000,0.0062888197651811036,9.999971890138053,1.1102230246251565e-16,9.992007221626409e-16,3.542650154408548e-17
185000,0.006410136963606086,9.999971130953387,0.0,9.992007221626409e-16,3.5686162465758285e-17
190000,0.0065294264746420675,9.999970371808793,-2.220446049250313e-16,9.992007221626409e-16,3.5942011724894425e-17
195000,0.0066467224779955866,9.999969612705016,0.0,8.881784197001252e-16,3.6194243183131286e-17
200000,0.006762058581807454,9.99996885364279,0.0,1.1102230246251565e-15,3.644303581498853e-17
205000,0.006875467811543666,9.999968094622837,-2.220446049250313e-16,8.881784197001252e-16,3.66885551774982e-17
210000,0.006986982630672378,9.999967335645868,0.0,1.1102230246251565e-15,3.69309547037662e-17
215000,0.007096634945166987,9.999966576712582,-2.220446049250313e-16,9.992007221626409e-16,3.717037684541683e-17
220000,0.007204456123392333,9.999965817823664,-2.220446049250313e-16,9.992007221626409e-16,3.740695408430777e-17
225000,0.007310476994076608,9.99996505897979,0.0,1.1102230246251565e-15,3.7640809831191694e-17
230000,0.007414727862602021,9.99996430018162,-2.220446049250313e-16,8.881784197001252e-16,3.7872059225940404e-17
235000,0.007517238515850727,9.99996354142981,0.0,9.992007221626409e-16,3.810080985200376e-17
240000,0.007618038239916423,9.999962782725001,-2.220446049250313e-16,1.1102230246251565e-15,3.8327162375859084e-17
245000,0.007717155812042179,9.999962024067823,0.0,1.1102230246251565e-15,3.855121112070415e-17
250000,0.007814619528321224,9.999961265458897,-2.220446049250313e-16,8.881784197001252e-16,3.877304458215963e-17
255000,0.007910457197984725,9.999960506898832,0.0,1.1102230246251565e-15,3.899274589310466e-17
260000,0.008004696161190063,9.999959748388228,-2.220446049250313e-16,8.881784197001252e-16,3.9210393243253205e-17
265000,0.008097363289369736,9.999958989927675,0.0,1.1102230246251565e-15,3.942606025885142e-17
270000,0.008188485002893594,9.999958231517752,-2.220446049250313e-16,8.881784197001252e-16,3.9639816346787425e-17
275000,0.00827808726992072,9.999957473159029,0.0,9.992007221626409e-16,3.985172700709689e-17
280000,0.008366195615153395,9.999956714852065,-2.220446049250313e-16,9.992007221626409e-16,4.006185411733834e-17
285000,0.00845283513506663,9.999955956597413,0.0,1.1102230246251565e-15,4.0270256191614656e-17
290000,0.008538030499926054,9.999955198395615,0.0,9.992007221626409e-16,4.04769886171235e-17
295000,0.00862180595812549,9.999954440247201,-2.220446049250313e-16,1.2212453270876722e-15,4.0682103870342925e-17
300000,0.008704185347183972,9.999953682152697,-2.220446049250313e-16,1.2212453270876722e-15,4.088565171502887e-17
305000,0.00878519210302115,9.999952924112616,-2.220446049250313e-16,1.1102230246251565e-15,4.108767938371763e-17
310000,0.00886484926046407,9.999952166127466,0.0,1.1102230246251565e-15,4.1288231744519004e-17
315000,0.008943179468555398,9.999951408197745,-2.220446049250313e-16,9.992007221626409e-16,4.14873514543583e-17
320000,0.009020204990782493,9.99995065032394,-2.220446049250313e-16,1.1102230246251565e-15,4.168507910020817e-17
325000,0.009095947718173132,9.999949892506535,0.0,9.992007221626409e-16,4.1881453329223275e-17
330000,0.009170429160417527,9.999949134746,-2.220446049250313e-16,1.1102230246251565e-15,4.20765109689549e-17
335000,0.009243670473969082,9.999948377042802,-2.220446049250313e-16,8.881784197001252e-16,4.227028713838693e-17
340000,0.009315692452238736,9.999947619397398,-2.220446049250313e-16,1.1102230246251565e-15,4.246281535075967e-17
345000,0.009386515537428766,9.999946861810235,-2.220446049250313e-16,8.881784197001252e-16,4.265412760881203e-17
350000,0.00945615982919429,9.999946104281758,-2.220446049250313e-16,7.771561172376096e-16,4.28442544930772e-17
355000,0.009524645085973178,9.9999453468124,-2.220446049250313e-16,9.992007221626409e-16,4.3033225243982437e-17
360000,0.009591990725708315,9.999944589402588,-2.220446049250313e-16,8.881784197001252e-16,4.322106783803068e-17
365000,0.009658215850163715,9.999943832052743,0.0,8.881784197001252e-16,4.3407809058746494e-17
370000,0.009723339232004007,9.999943074763276,-2.220446049250313e-16,1.1102230246251565e-15,4.359347456273949e-17
375000,0.009787379325649718,9.999942317534595,0.0,9.992007221626409e-16,4.3778088941360484e-17
380000,0.009850354273311986,9.999941560367096,0.0,8.881784197001252e-16,4.3961675778145096e-17
385000,0.009912281916104822,9.999940803261174,0.0,1.1102230246251565e-15,4.414425770248109e-17
390000,0.009973179792591085,9.999940046217214,0.0,8.881784197001252e-16,4.43258564398169e-17
395000,0.010033065143596425,9.999939289235593,0.0,8.881784197001252e-16,4.450649285865696e-17
400000,0.010091954920534534,9.999938532316687,0.0,9.992007221626409e-16,4.468618701452225e-17
405000,0.010149865788660296,9.99993777546086,-2.220446049250313e-16,1.2212453270876722e-15,4.4864958191168215e-17
410000,0.010206814136131555,9.999937018668472,0.0,9.992007221626409e-16,4.504282493924872e-17
415000,0.010262816068379525,9.999936261939878,-2.220446049250313e-16,8.881784197001252e-16,4.521980511265083e-17
420000,0.01031788741996884,9.999935505275426,-2.220446049250313e-16,1.1102230246251565e-15,4.539591590257846e-17
425000,0.010372043763137401,9.999934748675457,-2.220446049250313e-16,1.1102230246251565e-15,4.557117386959428e-17
430000,0.010425300406726614,9.99993399214031,-2.220446049250313e-16,9.992007221626409e-16,4.574559497382017e-17
435000,0.010477672399354253,9.999933235670312,-2.220446049250313e-16,9.992007221626409e-16,4.591919460334169e-17
440000,0.01052917453994808,9.99993247926579,-2.220446049250313e-16,9.992007221626409e-16,4.609198760096564e-17
445000,0.010579821377162877,9.999931722927064,-2.220446049250313e-16,7.771561172376096e-16,4.626398828944559e-17
450000,0.010629627211618439,9.999930966654446,-2.220446049250313e-16,1.1102230246251565e-15,4.64352104953553e-17
455000,0.010678606110054712,9.999930210448246,-2.220446049250313e-16,1.1102230246251565e-15,4.6605667571480417e-17
460000,0.010726771894694873,9.999929454308768,-2.220446049250313e-16,9.992007221626409e-16,4.6775372418165487e-17
465000,0.010774138162439988,9.99992869823631,0.0,1.1102230246251565e-15,4.694433750331815e-17
470000,0.010820718275641567,9.999927942231166,-2.220446049250313e-16,1.1102230246251565e-15,4.711257488143354e-17
475000,0.010866525375720679,9.999927186293622,-2.220446049250313e-16,9.992007221626409e-16,4.728009621161066e-17
480000,0.010911572381635487,9.999926430423962,0.0,9.992007221626409e-16,4.744691277453012e-17
485000,0.01095587199605746,9.999925674622466,-2.220446049250313e-16,9.992007221626409e-16,4.761303548865959e-17
490000,0.010999436709306571,9.999924918889405,-2.220446049250313e-16,1.1102230246251565e-15,4.7778474925506854e-17
495000,0.011042278800174629,9.999924163225051,-2.220446049250313e-16,8.881784197001252e-16,4.794324132422672e-17
500000,0.011084410341320693,9.999923407629666,0.0,1.1102230246251565e-15,4.810734460532386e-17
505000,0.011125843203849618,9.99992265210351,1.1102230246251565e-16,8.881784197001252e-16,4.8270794383812746e-17
510000,0.011166589057309698,9.99992189664684,-2.220446049250313e-16,9.992007221626409e-16,4.843359998169732e-17
515000,0.011206659379724789,9.999921141259907,0.0,9.992007221626409e-16,4.8595770439742704e-17
520000,0.01124606545544006,9.999920385942957,-2.220446049250313e-16,1.1102230246251565e-15,4.8757314528819864e-17
525000,0.011284818370317537,9.999919630696233,-2.220446049250313e-16,9.992007221626409e-16,4.891824076065668e-17
530000,0.011322929035994255,9.999918875519972,-2.220446049250313e-16,1.1102230246251565e-15,4.907855739798316e-17
535000,0.011360408178762403,9.99991812041441,0.0,1.1102230246251565e-15,4.923827246435721e-17
540000,0.011397266341055722,9.999917365379776,-2.220446049250313e-16,8.881784197001252e-16,4.9397393753456314e-17
545000,0.0114335138899597,9.999916610416298,0.0,1.1102230246251565e-15,4.955592883797414e-17
550000,0.011469161019882046,9.999915855524197,0.0,8.881784197001252e-16,4.971388507806228e-17
555000,0.011504217754871454,9.999915100703692,-2.220446049250313e-16,1.1102230246251565e-15,4.987126962948033e-17
560000,0.011538693948313652,9.999914345954997,0.0,1.2212453270876722e-15,5.00280894513548e-17
565000,0.011572599289924358,9.999913591278323,0.0,9.992007221626409e-16,5.0184351313579596e-17
570000,0.01160594330611501,9.999912836673879,-2.220446049250313e-16,9.992007221626409e-16,5.034006180395219e-17
575000,0.011638735362720308,9.999912082141869,-2.220446049250313e-16,9.992007221626409e-16,5.049522733498676e-17
580000,0.011670984673880117,9.999911327682492,1.1102230246251565e-16,8.881784197001252e-16,5.06498541504394e-17
585000,0.011702700295289718,9.999910573295946,0.0,7.771561172376096e-16,5.0803948331630286e-17
590000,0.011733891132128058,9.999909818982422,-2.220446049250313e-16,9.992007221626409e-16,5.095751580345224e-17
595000,0.011764565937226112,9.999909064742113,0.0,1.1102230246251565e-15,5.1110562340212536e-17
600000,0.011794733322406404,9.999908310575204,0.0,9.992007221626409e-16,5.1263093571212685e-17
605000,0.011824401751596707,9.999907556481881,-2.220446049250313e-16,8.881784197001252e-16,5.141511498617464e-17
610000,0.011853579546375415,9.999906802462323,-2.220446049250313e-16,1.1102230246251565e-15,5.1566631940429314e-17
615000,0.011882274889839515,9.999906048516706,-2.220446049250313e-16,9.992007221626409e-16,5.171764966003088e-17
620000,0.0119104958329691,9.999905294645206,-2.220446049250313e-16,1.1102230246251565e-15,5.186817324657998e-17
625000,0.011938250282718877,9.999904540847995,-2.220446049250313e-16,1.1102230246251565e-15,5.201820768206888e-17
630000,0.01196554602240796,9.999903787125238,0.0,9.992007221626409e-16,5.216775783343571e-17
635000,0.011992390699789829,9.999903033477102,-2.220446049250313e-16,9.992007221626409e-16,5.231682845715104e-17
640000,0.012018791839338322,9.99990227990375,-2.220446049250313e-16,1.1102230246251565e-15,5.2465424203598635e-17
645000,0.012044756834294297,9.999901526405342,0.0,9.992007221626409e-16,5.261354962148616e-17
650000,0.01207029295645836,9.999900772982032,-2.220446049250313e-16,9.992007221626409e-16,5.2761209162072647e-17
655000,0.012095407357116596,9.999900019633976,-2.220446049250313e-16,9.992007221626409e-16,5.290840718341293e-17
660000,0.01212010706592724,9.999899266361325,0.0,9.992007221626409e-16,5.305514795461909e-17
665000,0.012144398998821327,9.999898513164228,0.0,8.881784197001252e-16,5.320143566004718e-17
670000,0.012168289948571583,9.99989776004283,0.0,9.992007221626409e-16,5.334727440356562e-17
675000,0.012191786604097789,9.999897006997275,0.0,9.992007221626409e-16,5.349266821277768e-17
680000,0.012214895534964803,9.999896254027703,-2.220446049250313e-16,8.881784197001252e-16,5.3637621043475276e-17
685000,0.012237623203564816,9.999895501134256,-2.220446049250313e-16,9.992007221626409e-16,5.378213678407054e-17
690000,0.012259975965866891,9.999894748317066,1.1102230246251565e-16,8.881784197001252e-16,5.392621926028466e-17
695000,0.01228196006793973,9.999893995576269,0.0,9.992007221626409e-16,5.4069872239975454e-17
700000,0.012303581655344427,9.999893242911995,-2.220446049250313e-16,9.992007221626409e-16,5.421309943828207e-17
705000,0.012324846767892283,9.999892490324372,0.0,9.992007221626409e-16,5.4355904523125714e-17
710000,0.012345761349047805,9.99989173781353,0.0,7.771561172376096e-16,5.4498291121087165e-17
715000,0.012366331235588316,9.99989098537959,-2.220446049250313e-16,1.1102230246251565e-15,5.464026282387971e-17
720000,0.012386562172840008,9.999890233022676,-2.220446049250313e-16,1.1102230246251565e-15,5.4781823195425944e-17
725000,0.012406459809551872,9.999889480742906,0.0,9.992007221626409e-16,5.4922975779819494e-17
730000,0.012426029697559172,9.999888728540402,0.0,1.1102230246251565e-15,5.50637241103284e-17
735000,0.012445277297030556,9.999887976415275,-2.220446049250313e-16,9.992007221626409e-16,5.5204071719606157e-17
740000,0.012464207975668877,9.999887224367642,-2.220446049250313e-16,9.992007221626409e-16,5.5344022151650284e-17
745000,0.012482827018455486,9.999886472397613,-2.220446049250313e-16,1.1102230246251565e-15,5.548357897567796e-17
750000,0.012501139610675555,9.999885720505299,1.1102230246251565e-16,1.1102230246251565e-15,5.562274184102235e-17
755000,0.012519150861155147,9.999884968690806,0.0,9.992007221626409e-16,5.576151058883579e-17
760000,0.012536865787321204,9.999884216954241,1.1102230246251565e-16,9.992007221626409e-16,5.589988809146402e-17
765000,0.012554289324736557,9.999883465295708,-2.220446049250313e-16,1.1102230246251565e-15,5.603787716247752e-17
770000,0.012571426328346893,9.999882713715309,-2.220446049250313e-16,1.1102230246251565e-15,5.617548055986831e-17
775000,0.012588281569684856,9.999881962213143,0.0,7.771561172376096e-16,5.631270098886687e-17
780000,0.012604859740738394,9.99988121078931,-2.220446049250313e-16,7.771561172376096e-16,5.644954110460339e-17
785000,0.012621165454546838,9.999880459443904,-2.220446049250313e-16,9.992007221626409e-16,5.658600351445578e-17
790000,0.012637203251108496,9.999879708177023,0.0,9.992007221626409e-16,5.672209078026079e-17
795000,0.012652977590780972,9.999878956988757,-2.220446049250313e-16,9.992007221626409e-16,5.685780542040921e-17
800000,0.012668492862111136,9.9998782058792,0.0,9.992007221626409e-16,5.699314991178969e-17
805000,0.012683753376678644,9.999877454848441,0.0,1.1102230246251565e-15,5.712812669163698e-17
810000,0.012698763376779342,9.999876703896568,-2.220446049250313e-16,1.1102230246251565e-15,5.726273815928576e-17
815000,0.012713527035625609,9.999875953023666,0.0,1.1102230246251565e-15,5.739698667783824e-17
820000,0.012728048455636546,9.999875202229822,0.0,9.992007221626409e-16,5.753087457581282e-17
825000,0.01274233166656142,9.999874451515117,0.0,9.992007221626409e-16,5.766440414871795e-17
830000,0.012756380636010659,9.999873700879636,-2.220446049250313e-16,1.1102230246251565e-15,5.779757766051845e-17
835000,0.012770199266064004,9.999872950323457,-2.220446049250313e-16,1.1102230246251565e-15,5.793039734513625e-17
840000,0.012783791386507667,9.99987219984666,-2.220446049250313e-16,8.881784197001252e-16,5.806286540793092e-17
845000,0.01279716077415262,9.999871449449321,1.1102230246251565e-16,9.992007221626409e-16,5.81949840270224e-17
850000,0.012810311133386416,9.999870699131517,1.1102230246251565e-16,1.1102230246251565e-15,5.832675535474653e-17
855000,0.01282324610827034,9.999869948893322,-2.220446049250313e-16,1.1102230246251565e-15,5.845818151899608e-17
860000,0.012835969287199647,9.99986919873481,-2.220446049250313e-16,8.881784197001252e-16,5.85892646245381e-17
865000,0.012848484195326712,9.999868448656052,-2.220446049250313e-16,9.992007221626409e-16,5.872000675437541e-17
870000,0.01286079429796668,9.99986769865712,-2.220446049250313e-16,1.1102230246251565e-15,5.88504099710589e-17
875000,0.012872903007818931,9.999866948738081,-2.220446049250313e-16,9.992007221626409e-16,5.89804763179695e-17
880000,0.012884813673235362,9.999866198899003,-2.220446049250313e-16,1.1102230246251565e-15,5.911020782069188e-17
885000,0.01289652959009574,9.999865449139953,-2.220446049250313e-16,9.992007221626409e-16,5.923960644143082e-17
890000,0.012908054001279505,9.999864699460998,-2.220446049250313e-16,9.992007221626409e-16,5.936867422091795e-17
895000,0.012919390096424755,9.999863949862199,-2.220446049250313e-16,9.992007221626409e-16,5.94974131390873e-17
900000,0.01293054100791489,9.999863200343622,-2.220446049250313e-16,1.1102230246251565e-15,5.962582516331717e-17
905000,0.012941509816523812,9.999862450905326,0.0,1.1102230246251565e-15,5.975391224975558e-17
910000,0.01295229955271356,9.999861701547372,-2.220446049250313e-16,8.881784197001252e-16,5.988167634466869e-17
