Timestep (s),Sum Voltage (V),Carry Out Voltage (V),Sum Error Rate (Dimless),Carry Out Error Rate (Dimless),Energy Dissipation (J)
0,0.00022681358649718133,0.00022681375830438058,1.0,-2.220446049250313e-16,1.493490390512124e-19
5000,0.00045013514300826045,0.0004498070037218554,1.0,-2.220446049250313e-16,2.9848545159959717e-19
10000,0.0006696926741602435,0.0006690449308069074,1.0,-2.220446049250313e-16,4.474096325760833e-19
15000,0.0008855503815288115,0.0008845915923334232,1.0,-2.220446049250313e-16,5.961219642646841e-19
20000,0.0010977713489297262,0.0010965099278054974,1.0,-4.440892098500626e-16,7.446228338978688e-19
25000,0.0013064175508843972,0.0013048617733965478,1.0,0.0,8.929126339057962e-19
30000,0.0015115498880807563,0.0015097078850114772,1.0,-4.440892098500626e-16,1.0409917619506134e-18
35000,0.0017132281950763308,0.0017111079642551374,1.0,-2.220446049250313e-16,1.1888606211141427e-18
40000,0.0019115112610426953,0.0019091206650917027,1.0,-2.220446049250313e-16,1.3365196200162742e-18
45000,0.0021064568603687056,0.002103803627144127,1.0,-2.220446049250313e-16,1.483969172905731e-18
50000,0.0022981217563338473,0.002295213488209115,1.0,-2.220446049250313e-16,1.6312096998469437e-18
55000,0.002486561724281891,0.0024837371702251736,1.0,-2.220446049250313e-16,1.77824161382453e-18
60000,0.002671831571608573,0.0026690924870324427,1.0,-4.440892098500626e-16,1.92506535918744e-18
65000,0.002853985160448606,0.002851333264964316,1.0,-4.440892098500626e-16,2.0716813741859953e-18
70000,0.0030330754131910813,0.0030305124034345904,1.0,-4.440892098500626e-16,2.2180901033875637e-18
75000,0.0032091543316094843,0.0032066818822972694,1.0,-2.220446049250313e-16,2.3642919978392983e-18
80000,0.003382273024702966,0.0033798927802091818,1.0,-4.440892098500626e-16,2.5102875151551577e-18
85000,0.003552481711570121,0.003550195290314149,1.0,-2.220446049250313e-16,2.6560771197184775e-18
90000,0.003719829740884335,0.0037176387436791856,1.0,-2.220446049250313e-16,2.8016612827276672e-18
95000,0.0038843656146057377,0.0038822716126573837,1.0,-2.220446049250313e-16,2.9470404824252056e-18
100000,0.004046136990761777,0.0040441415386844185,1.0,-2.220446049250313e-16,3.0922152041623822e-18
105000,0.004205190709146972,0.004203295329275375,1.0,-2.220446049250313e-16,3.237185940633696e-18
110000,0.004361572797585488,0.004359778993270227,1.0,0.0,3.3819531919304437e-18
115000,0.004515328489701881,0.004513637750244531,1.0,-4.440892098500626e-16,3.526517465685047e-18
120000,0.0046665022415255325,0.004664916023492992,1.0,-4.440892098500626e-16,3.6708792773552864e-18
125000,0.004815137744877395,0.004813657488379317,1.0,-2.220446049250313e-16,3.81503915015442e-18
130000,0.004961277937891155,0.0049599050600261626,1.0,-2.220446049250313e-16,3.958997615382381e-18
135000,0.0051049650199860965,0.005103700918242375,1.0,-2.220446049250313e-16,4.102755212504801e-18
140000,0.005246240466148379,0.005245086515434737,1.0,-2.220446049250313e-16,4.246312489318966e-18
145000,0.005385145033452666,0.005384102592507595,1.0,-2.220446049250313e-16,4.389670002103146e-18
150000,0.005521718782150103,0.005520789189923193,1.0,0.0,4.532828315808413e-18
155000,0.005656001092917778,0.005655185664525956,1.0,-2.220446049250313e-16,4.675788004115333e-18
160000,0.005788030658887107,0.0057873306914125,1.0,1.1102230246251565e-16,4.818549649759617e-18
165000,0.005917845514244064,0.005917262285913688,1.0,-2.220446049250313e-16,4.96111384458312e-18
170000,0.00604548303722711,0.006045017815468856,1.0,0.0,5.103481189747322e-18
175000,0.006170979972319906,0.006170634001593036,1.0,-2.220446049250313e-16,5.2456522958704454e-18
180000,0.006294372434440174,0.0062941469397558856,1.0,-2.220446049250313e-16,5.387627783231731e-18
185000,0.006415695916272498,0.006415592103893082,1.0,0.0,5.5294082819620025e-18
190000,0.006534985304138006,0.006535004367577098,1.0,-2.220446049250313e-16,5.670994432201141e-18
195000,0.006652274887479491,0.006652418005216512,1.0,-2.220446049250313e-16,5.812386884281284e-18
200000,0.006767598373916579,0.00676786670284028,1.0,0.0,5.953586298899254e-18
205000,0.006880988889722324,0.0068813835729695984,1.0,0.0,6.094593347379377e-18
210000,0.006992478995215732,0.006993001164552295,1.0,0.0,6.235408711770675e-18
215000,0.007102100705558412,0.007102751470473497,1.0,-2.220446049250313e-16,6.37603308508737e-18
220000,0.00720988547582179,0.007210665932763521,1.0,0.0,6.516467171564539e-18
225000,0.007315864231717728,0.007316775463279306,1.0,0.0,6.6567116867613556e-18
230000,0.0074200673745691,0.007421110444368865,1.0,-2.220446049250313e-16,6.796767357831274e-18
235000,0.007522524780380341,0.007523700741498454,1.0,0.0,6.9366349237386735e-18
240000,0.007623265819221333,0.007624575710914722,1.0,0.0,7.076315135466413e-18
245000,0.0077223193639699116,0.007723764213129645,1.0,-2.220446049250313e-16,7.215808756210637e-18
250000,0.007819713793323154,0.00782129460910029,1.0,-2.220446049250313e-16,7.355116561666185e-18
255000,0.007915477001936691,0.007917194784710046,1.0,2.220446049250313e-16,7.494239340203634e-18
260000,0.008009636415420253,0.00801149214961913,1.0,1.1102230246251565e-16,7.633177893119684e-18
265000,0.008102218988142128,0.008104213643777098,1.0,0.0,7.771933034931059e-18
270000,0.008193251214830688,0.00819538575566667,1.0,0.0,7.910505593558624e-18
275000,0.008282759146119891,0.008285034519833267,1.0,-2.220446049250313e-16,8.048896410572205e-18
280000,0.00837076838501757,0.008373185526955769,1.0,0.0,8.187106341505692e-18
285000,0.008457304104430281,0.008459863939711985,1.0,-2.220446049250313e-16,8.325136256062604e-18
290000,0.008542391047402785,0.008545094489042553,1.0,0.0,8.462987038465977e-18
295000,0.008626053537304805,0.008628901484572994,1.0,0.0,8.600659587669328e-18
300000,0.008708315484100651,0.0087113088263196,1.0,-2.220446049250313e-16,8.738154817653353e-18
305000,0.008789200394648335,0.008792340013810285,1.0,0.0,8.87547365769436e-18
310000,0.0088687313749518,0.008872018141498083,1.0,-2.220446049250313e-16,9.012617052757525e-18
315000,0.008946931143462549,0.008950365913955123,1.0,-2.220446049250313e-16,9.149585963681802e-18
320000,0.009023822028788018,0.009027405652705682,1.0,0.0,9.286381367585438e-18
325000,0.009099425983899609,0.009103159300347044,1.0,-2.220446049250313e-16,9.4230042581571e-18
330000,0.009173764590244425,0.009177648428680572,1.0,-2.220446049250313e-16,9.559455645959283e-18
335000,0.009246859065366457,0.009250894250179617,1.0,0.0,9.695736558778955e-18
340000,0.009318730268371007,0.009322917605082885,1.0,-2.220446049250313e-16,9.831848042052993e-18
345000,0.009389398699135167,0.009393738992659507,1.0,1.1102230246251565e-16,9.967791159146027e-18
350000,0.00945888451689209,0.009463378560747568,1.0,0.0,1.0103566991726242e-17
355000,0.009527207541357725,0.009531856117021084,1.0,-2.220446049250313e-16,1.0239176640198807e-17
360000,0.009594387249303284,0.009599191136019194,1.0,-2.220446049250313e-16,1.0374621224045613e-17
365000,0.009660442796706319,0.009665402762131375,1.0,0.0,1.0509901882281554e-17
370000,0.009725393014321385,0.00973050982079436,1.0,-2.220446049250313e-16,1.0645019773794209e-17
375000,0.009789256413713943,0.009794530808569523,1.0,0.0,1.0779976077893422e-17
380000,0.009852051190736783,0.00985748392242692,1.0,-2.220446049250313e-16,1.0914771994662194e-17
385000,0.009913795240723274,0.009919387045261324,1.0,0.0,1.1049408745446315e-17
390000,0.009974506148855448,0.009980257759699246,1.0,-2.220446049250313e-16,1.1183887573360645e-17
395000,0.010034201212711117,0.01004011335428842,1.0,0.0,1.1318209743706958e-17
400000,0.010092897432074397,0.010098970820937244,1.0,0.0,1.1452376544588288e-17
405000,0.01015061152083888,0.010156846867160084,1.0,0.0,1.1586389287391392e-17
410000,0.010207359912299306,0.010213757921960432,1.0,-2.220446049250313e-16,1.172024930730349e-17
415000,0.010263158762352034,0.010269720130959822,1.0,0.0,1.1853957963947862e-17
420000,0.01031802395365322,0.010324749376861531,1.0,0.0,1.1987516641895444e-17
425000,0.010371971106848999,0.010378861269833513,1.0,0.0,1.2120926751339478e-17
430000,0.010425015571024668,0.010432071154117076,1.0,-2.220446049250313e-16,1.225418972876806e-17
435000,0.010477172441762378,0.010484394118751359,1.0,-2.220446049250313e-16,1.2387307037564362e-17
440000,0.010528456559700037,0.010535845002438012,1.0,-2.220446049250313e-16,1.252028016871279e-17
445000,0.01057888251653298,0.01058643838679974,1.0,0.0,1.2653110641556703e-17
450000,0.010628464650813942,0.01063618861621094,1.0,0.0,1.2785800004543902e-17
455000,0.010677217070448141,0.010685109783722176,1.0,-2.220446049250313e-16,1.2918349835999969e-17
460000,0.010725153644373646,0.010733215757210578,1.0,0.0,1.3050761744927188e-17
465000,0.010772288000703869,0.010780520161868505,1.0,0.0,1.3183037371984448e-17
470000,0.010818633543789445,0.01082703639630025,1.0,-2.220446049250313e-16,1.3315178390268476e-17
475000,0.010864203454144765,0.010872777638036235,1.0,0.0,1.344718650630514e-17
480000,0.010909010689446233,0.010917756834613318,1.0,0.0,1.3579063461063575e-17
485000,0.010953067983289851,0.010961986727073693,1.0,1.1102230246251565e-16,1.3710811030999342e-17
490000,0.010996387862568477,0.011005479833100336,1.0,-2.220446049250313e-16,1.3842431029142426e-17
495000,0.01103898264259001,0.011048248465101052,1.0,-2.220446049250313e-16,1.3973925306260576e-17
500000,0.01108086443233848,0.011090304724534645,1.0,0.0,1.410529575206706e-17
505000,0.01112204513215168,0.011131660516754795,1.0,0.0,1.423654429651712e-17
510000,0.011162536444662021,0.011172327541706186,1.0,1.1102230246251565e-16,1.4367672911189417e-17
515000,0.011202349883523446,0.01121231730381054,1.0,-2.220446049250313e-16,1.4498683610671302e-17
520000,0.011241496759213548,0.011251641114114632,1.0,0.0,1.4629578454134635e-17
525000,0.011279988194699707,0.011290310094857182,1.0,0.0,1.4760359546919953e-17
530000,0.011317835126643517,0.011328335180357736,1.0,0.0,1.4891029042232588e-17
535000,0.011355048308460318,0.01136572712497614,1.0,-2.220446049250313e-16,1.5021589142948247e-17
540000,0.011391638317405337,0.011402496496480754,1.0,0.0,1.5152042103573208e-17
545000,0.011427615546352462,0.011438653694003556,1.0,0.0,1.528239023225183e-17
550000,0.011462990219936978,0.011474208931250014,1.0,-2.220446049250313e-16,1.541263589300234e-17
555000,0.011497772382762351,0.01150917225953599,1.0,0.0,1.5542781507989438e-17
560000,0.01153197191953668,0.011543553559628418,1.0,0.0,1.5672829560035808e-17
565000,0.011565598544572517,0.011577362546383573,1.0,0.0,1.5802782595296706e-17
570000,0.011598661811716548,0.011610608772361931,1.0,-2.220446049250313e-16,1.593264322605394e-17
575000,0.011631171108880392,0.011643301627019056,1.0,-2.220446049250313e-16,1.6062414133873826e-17
580000,0.011663135673913303,0.01167545034722814,1.0,-2.220446049250313e-16,1.6192098072739098e-17
585000,0.011694564585308301,0.011707064009944819,1.0,0.0,1.6321697872720744e-17
590000,0.01172546677299014,0.011738151543912015,1.0,0.0,1.6451216443656093e-17
595000,0.01175585101483333,0.011768721725299617,1.0,-2.220446049250313e-16,1.6580656779334565e-17
600000,0.011785725939414198,0.011798783186608888,1.0,0.0,1.671002196183544e-17
605000,0.011815100032754853,0.011828344413191184,1.0,-2.220446049250313e-16,1.6839315166357422e-17
610000,0.011843981641956951,0.011857413751528472,1.0,-2.220446049250313e-16,1.6968539666333604e-17
615000,0.011872378967621123,0.011885999405524822,1.0,-2.220446049250313e-16,1.7097698839153785e-17
620000,0.011900300075415128,0.011914109443469415,1.0,0.0,1.7226796172146367e-17
625000,0.01192775290119251,0.01194175179771444,1.0,0.0,1.73558352692596e-17
630000,0.011954745240141411,0.011968934269914744,1.0,-2.220446049250313e-16,1.7484819858306872e-17
635000,0.011981284758998371,0.011995664526639254,1.0,0.0,1.761375379888386e-17
640000,0.012007379000580267,0.01202195010898017,1.0,-2.220446049250313e-16,1.774264109093782e-17
645000,0.012033035374088768,0.012047798431204322,1.0,-2.220446049250313e-16,1.7871485884337165e-17
650000,0.012058261170966077,0.01207321678529869,1.0,0.0,1.8000292489191274e-17
655000,0.012083063556832233,0.01209821233950167,1.0,0.0,1.8129065387340556e-17
660000,0.012107449578757258,0.012122792141136539,1.0,-2.220446049250313e-16,1.825780924496601e-17
665000,0.012131426162766763,0.012146963124678126,1.0,-2.220446049250313e-16,1.838652892656069e-17
670000,0.012155000125564407,0.01217073210168613,1.0,0.0,1.851522951031555e-17
675000,0.012178178162595315,0.012194105778494927,1.0,-2.220446049250313e-16,1.864391630528449e-17
680000,0.012200966858672715,0.012217090741745333,1.0,0.0,1.8772594870459732e-17
685000,0.01222337269550893,0.012239693467372859,1.0,-2.220446049250313e-16,1.890127103602389e-17
690000,0.01224540203370761,0.012261920325659658,1.0,-2.220446049250313e-16,1.9029950927133284e-17
695000,0.012267061135228059,0.012283777587864043,1.0,-2.220446049250313e-16,1.9158640990468107e-17
700000,0.012288356159809515,0.012305271409087368,1.0,1.1102230246251565e-16,1.9287348024303275e-17
705000,0.012309293154754604,0.012326407847295152,1.0,0.0,1.9416079212227566e-17
710000,0.012329878077922685,0.012347192855828283,1.0,-2.220446049250313e-16,1.954484216130705e-17
715000,0.01235011677589511,0.012367632293928127,1.0,-2.220446049250313e-16,1.9673644945422465e-17
720000,0.012370015007556955,0.012387731918186078,1.0,0.0,1.9802496154549615e-17
725000,0.012389578427089458,0.012407497390790837,1.0,1.1102230246251565e-16,1.9931404951120062e-17
730000,0.012408812596704944,0.01242693427820177,1.0,0.0,2.00603811345734e-17
735000,0.012427722986528151,0.012446048056770166,1.0,0.0,2.0189435215646205e-17
740000,0.01244631497181643,0.012464844109357028,1.0,0.0,2.03185785023408e-17
745000,0.012464593840490926,0.01248332772973362,1.0,0.0,2.0447823199617948e-17
750000,0.012482564798026695,0.012501504119842594,1.0,0.0,2.0576972708834515e-17
755000,0.01250023295184812,0.012519378398030648,1.0,0.0,2.0705868916452276e-17
760000,0.012517603329014903,0.012536955600400433,1.0,-2.220446049250313e-16,2.0834524535801246e-17
765000,0.012534680869105017,0.01255424067281228,1.0,0.0,2.0962951394791843e-17
770000,0.012551470435485877,0.012571238480561029,1.0,0.0,2.1091160539203203e-17
775000,0.012567976801305758,0.012587953808373234,1.0,-2.220446049250313e-16,2.1219162321801683e-17
780000,0.012584204666446948,0.01260439136227552,1.0,-2.220446049250313e-16,2.1346966479384175e-17
785000,0.012600158655188086,0.012620555766653465,1.0,0.0,2.1474582199762357e-17
790000,0.012615843302334036,0.012636451571185602,1.0,-2.220446049250313e-16,2.1602018180251564e-17
795000,0.012631263079019244,0.01265208325217757,1.0,0.0,2.1729282678718364e-17
800000,0.012646422374969228,0.012667455204762016,1.0,0.0,2.185638355860897e-17
805000,0.012661325506193255,0.012682571753152967,1.0,0.0,2.1983328328474872e-17
810000,0.012675976712687992,0.012697437153410518,1.0,-2.220446049250313e-16,2.2110124176966028e-17
815000,0.01269038017529773,0.01271205558344016,1.0,0.0,2.223677800383644e-17
820000,0.012704539996272041,0.01272643116092408,1.0,0.0,2.2363296447476453e-17
825000,0.012718460208858457,0.012740567926460543,1.0,-2.220446049250313e-16,2.2489685909563922e-17
830000,0.012732144780891614,0.012754469859403058,1.0,-2.220446049250313e-16,2.2615952576852638e-17
835000,0.012745597613871605,0.012768140864323521,1.0,-2.220446049250313e-16,2.2742102440888013e-17
840000,0.012758822541128074,0.012781584789178064,1.0,0.0,2.2868141315574252e-17
845000,0.012771823334718315,0.012794805414486469,1.0,0.0,2.299407485298534e-17
850000,0.012784603700881124,0.012807806459125153,1.0,0.0,2.3119908557606062e-17
855000,0.01279716728692351,0.012820591574058848,1.0,0.0,2.324564779922178e-17
860000,0.012809517680772516,0.012833164358233742,1.0,0.0,2.3371297824425018e-17
865000,0.012821658399795976,0.012845528343842342,1.0,-2.220446049250313e-16,2.3496863767231388e-17
870000,0.012833592910235635,0.012857687010798438,1.0,-2.220446049250313e-16,2.3622350658482266e-17
875000,0.0128453246227664,0.012869643770798233,1.0,1.1102230246251565e-16,2.3747763434539337e-17
880000,0.012856856878425096,0.012881401986544905,1.0,0.0,2.387310694511901e-17
885000,0.012868192977325634,0.012892964964873308,1.0,0.0,2.3998385913480214e-17
890000,0.01287933615600756,0.012904335957510208,1.0,0.0,2.4123605083477078e-17
895000,0.012890289597015709,0.012915518153321908,1.0,0.0,2.4248769085007942e-17
900000,0.012901056428894789,0.012926514699883422,1.0,1.1102230246251565e-16,2.437388248610596e-17
905000,0.012911639732681196,0.012937328684097261,1.0,-2.220446049250313e-16,2.449894979787995e-17
910000,0.012922042530089327,0.012947963148364609,1.0,-2.220446049250313e-16,2.4623975478969726e-17
915000,0.012932267794760725,0.012958421074732827,1.0,-2.220446049250313e-16,2.4748963939652617e-17
920000,0.01294231845141292,0.012968705408416334,1.0,-2.220446049250313e-16,2.4873919545411943e-17
925000,0.012952197376503003,0.012978819032818013,1.0,-2.220446049250313e-16,2.4998846620429444e-17
930000,0.012961907399354655,0.012988764789688738,1.0,0.0,2.5123749450598505e-17
935000,0.01297145129408419,0.012998545474281208,1.0,0.0,2.5248632286337443e-17
940000,0.01298083179719712,0.013008163831728153,1.0,-2.220446049250313e-16,2.5373499345082107e-17
945000,0.012990051594499799,0.013017622564427178,1.0,-2.220446049250313e-16,2.5498354813628926e-17
950000,0.0129991133249956,0.013026924327732819,1.0,0.0,2.562320285020021e-17
955000,0.013008019584902582,0.013036071734380386,1.0,1.1102230246251565e-16,2.5748047586307857e-17
960000,0.01301677292417431,0.013045067354145177,1.0,0.0,2.58728931284418e-17
965000,0.013025375856660115,0.013053913710464082,1.0,-4.440892098500626e-16,2.599774355960897e-17
970000,0.013033830848583085,0.013062613288445128,1.0,-2.220446049250313e-16,2.6122602940677386e-17
975000,0.013042140323142052,0.01307116853114287,1.0,0.0,2.624747531158792e-17
980000,0.01305030667076325,0.013079581835718463,1.0,-2.220446049250313e-16,2.637236469240503e-17
985000,0.013058332228381063,0.01308785556814412,1.0,0.0,2.6497275084254677e-17
990000,0.013066219303626116,0.01309599204726391,1.0,-2.220446049250313e-16,2.6622210470160204e-17
995000,0.013073970157138607,0.013103993559057581,1.0,-2.220446049250313e-16,2.674717481570366e-17
1000000,0.013081587018699084,0.013111862350704672,1.0,-2.220446049250313e-16,2.6872172069587943e-17
1005000,0.013089072077726416,0.013119600626939598,1.0,-2.220446049250313e-16,2.699720616417322e-17
1010000,0.013096427486377672,0.013127210562457437,1.0,0.0,2.7122281015826088e-17
1015000,0.013103655356761447,0.01313469428712959,1.0,-2.220446049250313e-16,2.7247400525266835e-17
1020000,0.013110757771221749,0.01314205390440421,1.0,-2.220446049250313e-16,2.7372568577669087e-17
1025000,0.013117736777946061,0.013149291479918212,1.0,-2.220446049250313e-16,2.7497789042840915e-17
1030000,0.013124594380021965,0.013156409040227803,1.0,0.0,2.762306577534877e-17
1035000,0.013131332557082103,0.013163408587130531,1.0,0.0,2.7748402614326402e-17
1040000,0.013137953245775505,0.013170292077941776,1.0,0.0,2.787380338354893e-17
1045000,0.013144458358273712,0.013177061447247847,1.0,0.0,2.7999271891105946e-17
1050000,0.013150849769162379,0.013183718589974682,1.0,-2.220446049250313e-16,2.8124811929301386e-17
1055000,0.01315712932251161,0.013190265376497447,1.0,0.0,2.825042727426369e-17
1060000,0.013163298829892329,0.013196703641141446,1.0,-2.220446049250313e-16,2.837612168565751e-17
1065000,0.013169360071402285,0.013203035189165154,1.0,-2.220446049250313e-16,2.850189890625095e-17
1070000,0.013175314802206767,0.013209261792339347,1.0,-2.220446049250313e-16,2.862776266144513e-17
1075000,0.01318116473859208,0.01321538520405744,1.0,0.0,2.8753716658754424e-17
1080000,0.01318691157349561,0.013221407135397139,1.0,-2.220446049250313e-16,2.8879764587314165e-17
1085000,0.013192556973212066,0.013227329275565533,1.0,-2.220446049250313e-16,2.9005910117181613e-17
