Timestep (s),Sum Voltage (V),Carry Out Voltage (V),Sum Error Rate (Dimless),Carry Out Error Rate (Dimless),Energy Dissipation (J)
0,0.00018585113844837308,12.499999820454702,-1.0080825063596421e-13,-1.0236256287043943e-13,2.6122220290417725e-16
50000,0.00036273586723743745,12.499999640908452,-1.0014211682118912e-13,-1.0236256287043943e-13,2.637031054083153e-16
100000,0.0005369841569136336,12.499999461361025,-9.9253938401489e-14,-1.0236256287043943e-13,2.6615258772683535e-16
150000,0.0007092010079253423,12.499999281812086,-9.85878045867139e-14,-1.021405182655144e-13,2.685719414031942e-16
200000,0.0008803861175161671,12.499999102261201,-9.792167077193881e-14,-1.021405182655144e-13,2.709623844741136e-16
250000,0.0010514504030672766,12.499998922707842,-9.725553695716371e-14,-1.021405182655144e-13,2.733250662999981e-16
300000,0.0012232315858021064,12.499998743151387,-9.681144774731365e-14,-1.0236256287043943e-13,2.756610720435937e-16
350000,0.0013965073012908772,12.499998563591124,-9.592326932761353e-14,-1.0236256287043943e-13,2.779714268311421e-16
400000,0.00157200619240532,12.499998384026247,-9.525713551283843e-14,-1.021405182655144e-13,2.802570996213677e-16
450000,0.001750417351258061,12.499998204455864,-9.459100169806334e-14,-1.0236256287043943e-13,2.825190068053697e-16
500000,0.0019323984062627963,12.499998024878993,-9.392486788328824e-14,-1.021405182655144e-13,2.847580155590146e-16
550000,0.0021185824945785686,12.49999784529456,-9.303668946358812e-14,-1.021405182655144e-13,2.8697494696783937e-16
600000,0.0023095843156969572,12.499997665701402,-9.259260025373806e-14,-1.021405182655144e-13,2.8917057894130603e-16
650000,0.0025060054263219074,12.499997486098263,-9.170442183403793e-14,-1.021405182655144e-13,2.9134564893373466e-16
700000,0.002708438908112207,12.499997306483788,-9.08162434143378e-14,-1.0191847366058937e-13,2.935008564868998e-16
750000,0.0029174735167986666,12.499997126856528,-9.015010959956271e-14,-1.021405182655144e-13,2.9563686560731885e-16
800000,0.0031336974025696967,12.499996947214932,-8.926193117986259e-14,-1.0191847366058937e-13,2.9775430699215346e-16
850000,0.0033577014764769914,12.499996767557345,-8.837375276016246e-14,-1.0236256287043943e-13,2.9985378011434607e-16
900000,0.0035900824853034776,12.499996587882007,-8.770761894538737e-14,-1.0236256287043943e-13,3.0193585517834443e-16
950000,0.003831445847268329,12.499996408187044,-8.681944052568724e-14,-1.0236256287043943e-13,3.040010749563135e-16
1000000,0.004082408292701648,12.499996228470469,-8.593126210598712e-14,-1.021405182655144e-13,3.0604995651353523e-16
1050000,0.004343600347042546,12.49999604873017,-8.504308368628699e-14,-1.021405182655144e-13,3.0808299283201043e-16
1100000,0.004615668687930984,12.499995868963913,-8.393286066166183e-14,-1.021405182655144e-13,3.101006543399654e-16
1150000,0.004899278403548872,12.499995689169332,-8.282263763703668e-14,-1.0236256287043943e-13,3.1210339035406795e-16
1200000,0.0051951151755424176,12.499995509343925,-8.193445921733655e-14,-1.021405182655144e-13,3.1409163044189917e-16
1250000,0.005503887406684176,12.499995329485051,-8.060219158778636e-14,-1.021405182655144e-13,3.16065785710151e-16
1300000,0.005826328310785715,12.499995149589916,-7.993605777301127e-14,-1.0236256287043943e-13,3.1802625002474227e-16
1350000,0.006163197980170882,12.499994969655571,-7.838174553853605e-14,-1.0236256287043943e-13,3.199734011687765e-16
1400000,0.0065152854441689985,12.499994789678905,-7.72715225139109e-14,-1.021405182655144e-13,3.21907601942833e-16
1450000,0.006883410730543913,12.499994609656634,-7.571721027943568e-14,-1.0236256287043943e-13,3.2382920121261586e-16
1500000,0.0072684269404700835,12.4999944295853,-7.460698725481052e-14,-1.021405182655144e-13,3.2573853490891276e-16
1550000,0.0076712223465709726,12.499994249461254,-7.30526750203353e-14,-1.021405182655144e-13,3.276359269840536e-16
1600000,0.008092722522607341,12.499994069280655,-7.172040739078511e-14,-1.021405182655144e-13,3.2952169032910273e-16
1650000,0.008533892512615052,12.499993889039452,-7.038813976123492e-14,-1.0191847366058937e-13,3.313961276560066e-16
1700000,0.008995739046614031,12.499993708733381,-6.88338275267597e-14,-1.021405182655144e-13,3.3325953234869046e-16
1750000,0.009479312809440355,12.499993528357955,-6.727951529228449e-14,-1.021405182655144e-13,3.351121892870541e-16
1800000,0.009985710768747125,12.499993347908445,-6.550315845288424e-14,-1.021405182655144e-13,3.3695437564824614e-16
1850000,0.01051607856778618,12.499993167379879,-6.394884621840902e-14,-1.021405182655144e-13,3.3878636168898003e-16
1900000,0.011071612988197468,12.49999298676702,-6.217248937900877e-14,-1.021405182655144e-13,3.4060841151313774e-16
1950000,0.011653564487685713,12.499992806064363,-6.039613253960852e-14,-1.021405182655144e-13,3.4242078382976543e-16
2000000,0.01226323981715089,12.49999262526611,-5.861977570020827e-14,-1.0191847366058937e-13,3.44223732705641e-16
2050000,0.012902004721544869,12.49999244436617,-5.6621374255882984e-14,-1.021405182655144e-13,3.4601750831799187e-16
2100000,0.01357128672845043,12.49999226335813,-5.484501741648273e-14,-1.021405182655144e-13,3.4780235771368755e-16
2150000,0.014272578028108466,12.499992082235252,-5.284661597215745e-14,-1.021405182655144e-13,3.495785255810987e-16
2200000,0.015007438448350455,12.499991900990446,-5.10702591327572e-14,-1.0236256287043943e-13,3.5134625504252726e-16
2250000,0.015777498527623522,12.49999171961626,-4.907185768843192e-14,-1.021405182655144e-13,3.531057884769431e-16
2300000,0.01658446268901494,12.499991538104858,-4.6851411639181606e-14,-1.021405182655144e-13,3.548573683831148e-16
2350000,0.017430112517884074,12.499991356448007,-4.4853010194856324e-14,-1.021405182655144e-13,3.566012382970008e-16
2400000,0.018316310145397512,12.499991174637046,-4.263256414560601e-14,-1.0236256287043943e-13,3.58337643779479e-16
2450000,0.01924500173991918,12.499990992662877,-4.063416270128073e-14,-1.021405182655144e-13,3.600668334943737e-16
2500000,0.020218221107836665,12.499990810515936,-3.8413716652030416e-14,-1.0236256287043943e-13,3.6178906040261284e-16
2550000,0.021238093404984865,12.499990628186172,-3.6415315207705135e-14,-1.021405182655144e-13,3.6350458310438613e-16
2600000,0.022306838959379946,12.499990445663022,-3.419486915845482e-14,-1.021405182655144e-13,3.6521366737162817e-16
2650000,0.023426777205443533,12.499990262935386,-3.219646771412954e-14,-1.0236256287043943e-13,3.669165879250249e-16
2700000,0.024600330729314016,12.499990079991601,-2.9976021664879227e-14,-1.021405182655144e-13,3.686136305277773e-16
2750000,0.02583002942414114,12.499989896819415,-2.7977620220553945e-14,-1.0236256287043943e-13,3.703050944934672e-16
2800000,0.027118514753435154,12.499989713405949,-2.5979218776228663e-14,-1.021405182655144e-13,3.719912957391029e-16
2850000,0.02846854411951409,12.499989529737677,-2.375877272697835e-14,-1.021405182655144e-13,3.7367257056624317e-16
2900000,0.029882995332761047,12.499989345800385,-2.1760371282653068e-14,-1.021405182655144e-13,3.7534928042563716e-16
2950000,0.03136487117559249,12.499989161579142,-1.9984014443252818e-14,-1.021405182655144e-13,3.7702181803188057e-16
3000000,0.03291730405240682,12.499988977058264,-1.8207657603852567e-14,-1.021405182655144e-13,3.786906153625118e-16
3050000,0.03454356071271673,12.49998879222127,-1.6431300764452317e-14,-1.0236256287043943e-13,3.8035615434087983e-16
3100000,0.036247047028009544,12.49998860705085,-1.4654943925052066e-14,-1.021405182655144e-13,3.8201898142608167e-16
3150000,0.03803131279128453,12.49998842152882,-1.3100631690576847e-14,-1.021405182655144e-13,3.8367972804082125e-16
3200000,0.03990005648695415,12.499988235636081,-1.1546319456101628e-14,-1.021405182655144e-13,3.853367996781463e-16
3250000,0.04185712993773969,12.499988049352567,-9.992007221626409e-15,-1.0236256287043943e-13,3.8698879068097695e-16
3300000,0.04390652400128311,12.499987862657203,-8.881784197001252e-15,-1.0236256287043943e-13,3.8863437618180063e-16
3350000,0.04605227880594791,12.499987675527855,-7.771561172376096e-15,-1.021405182655144e-13,3.902724320546094e-16
3400000,0.04829874324465533,12.499987487941269,-6.439293542825908e-15,-1.021405182655144e-13,3.919036036574714e-16
3450000,0.05065043906118593,12.499987299873025,-5.329070518200751e-15,-1.0191847366058937e-13,3.93528462018403e-16
3500000,0.053112065832502116,12.499987111297472,-4.6629367034256575e-15,-1.021405182655144e-13,3.951475236991292e-16
3550000,0.055688505984896434,12.499986922187668,-3.9968028886505635e-15,-1.021405182655144e-13,3.9676126495194543e-16
3600000,0.0583848297501568,12.49998673251532,-3.1086244689504383e-15,-1.0236256287043943e-13,3.9837013205291025e-16
3650000,0.06120630000762616,12.499986542250706,-2.6645352591003757e-15,-1.021405182655144e-13,3.999745490025781e-16
3700000,0.06415837697276129,12.499986351362617,-2.220446049250313e-15,-1.021405182655144e-13,4.0157492337088024e-16
3750000,0.0672467226972625,12.499986159818269,-1.5543122344752192e-15,-1.0236256287043943e-13,4.0317165080439106e-16
3800000,0.07047720534592655,12.499985967583234,-1.1102230246251565e-15,-1.021405182655144e-13,4.0476511855113133e-16
3850000,0.07385590321356134,12.499985774621354,-8.881784197001252e-16,-1.021405182655144e-13,4.0635570824913135e-16
3900000,0.07738910844264603,12.499985580894656,-6.661338147750939e-16,-1.021405182655144e-13,4.07943798154232e-16
3950000,0.0810833303994264,12.499985386363257,-6.661338147750939e-16,-1.0236256287043943e-13,4.0952976493280395e-16
4000000,0.08494529866302024,12.49998519098527,-4.440892098500626e-16,-1.021405182655144e-13,4.111139851108351e-16
4050000,0.08898196557899189,12.499984994716712,-4.440892098500626e-16,-1.021405182655144e-13,4.1269683624744395e-16
4100000,0.09320050832581275,12.499984797511384,-2.220446049250313e-16,-1.021405182655144e-13,4.142786978822237e-16
4150000,0.0976083304396913,12.499984599320774,0.0,-1.0236256287043943e-13,4.1585995229431623e-16
4200000,0.10221306274049181,12.49998440009393,-2.220446049250313e-16,-1.021405182655144e-13,4.174409851015554e-16
4250000,0.10702256359890548,12.49998419977735,0.0,-1.0236256287043943e-13,4.190221857202508e-16
4300000,0.11204491848273478,12.499983998314837,1.1102230246251565e-16,-1.021405182655144e-13,4.206039477023377e-16
4350000,0.11728843871816574,12.499983795647385,1.1102230246251565e-16,-1.021405182655144e-13,4.2218666896131737e-16
4400000,0.1227616594002943,12.499983591713022,0.0,-1.0191847366058937e-13,4.2377075189634297e-16
4450000,0.12847333638599548,12.499983386446667,0.0,-1.021405182655144e-13,4.2535660342083896e-16
4500000,0.13443244230156423,12.499983179779978,1.1102230246251565e-16,-1.021405182655144e-13,4.2694463490079807e-16
4550000,0.14064816149747908,12.499982971641181,1.1102230246251565e-16,-1.021405182655144e-13,4.285352620059448e-16
4600000,0.14712988388322545,12.499982761954906,2.220446049250313e-16,-1.021405182655144e-13,4.30128904476703e-16
4650000,0.15388719757644503,12.499982550641999,2.220446049250313e-16,-1.021405182655144e-13,4.317259858082823e-16
4700000,0.16092988030283145,12.499982337619342,2.220446049250313e-16,-1.021405182655144e-13,4.3332693285337595e-16
4750000,0.16826788948625293,12.499982122799643,-2.220446049250313e-16,-1.021405182655144e-13,4.3493217534452677e-16
4800000,0.17591135097262006,12.499981906091241,1.1102230246251565e-16,-1.021405182655144e-13,4.3654214533646475e-16
4850000,0.1838705463361133,12.499981687397872,0.0,-1.0191847366058937e-13,4.381572765696689e-16
4900000,0.1921558987226044,12.499981466618449,-2.220446049250313e-16,-1.0236256287043943e-13,4.3977800375562175e-16
4950000,0.2007779571924886,12.499981243646818,4.440892098500626e-16,-1.021405182655144e-13,4.414047617850021e-16
5000000,0.20974737953376177,12.499981018371503,0.0,-1.021405182655144e-13,4.4303798485989975e-16
5050000,0.21907491352602967,12.49998079067544,0.0,-1.021405182655144e-13,4.446781055523056e-16
5100000,0.22877137664725433,12.499980560435699,0.0,-1.021405182655144e-13,4.463255537905644e-16
5150000,0.23884763422739383,12.499980327523186,0.0,-1.021405182655144e-13,4.47980755777261e-16
5200000,0.2493145760666688,12.49998009180234,-4.440892098500626e-16,-1.021405182655144e-13,4.496441328413518e-16
5250000,0.26018309155089436,12.499979853130805,-2.220446049250313e-16,-1.021405182655144e-13,4.513161002292353e-16
5300000,0.27146404331209284,12.49997961135909,0.0,-1.021405182655144e-13,4.529970658393168e-16
5350000,0.28316823949929787,12.499979366330216,0.0,-1.021405182655144e-13,4.546874289058732e-16
5400000,0.2953064047419415,12.499979117879336,0.0,-1.021405182655144e-13,4.563875786386583e-16
5450000,0.3078891499062799,12.499978865833347,2.220446049250313e-16,-1.021405182655144e-13,4.580978928254076e-16
5500000,0.3209269407637474,12.49997861001047,0.0,-1.021405182655144e-13,4.598187364054004e-16
5550000,0.3344300657086727,12.49997835021982,1.1102230246251565e-16,-1.021405182655144e-13,4.615504600227155e-16
5600000,0.3484086026811706,12.499978086260953,1.1102230246251565e-16,-1.021405182655144e-13,4.63293398568823e-16
5650000,0.36287238546892486,12.49997781792338,0.0,-1.021405182655144e-13,4.650478697246292e-16
5700000,0.3778309695786727,12.499977544986073,2.220446049250313e-16,-1.021405182655144e-13,4.668141725128694e-16
5750000,0.39329359788414303,12.499977267216932,-2.220446049250313e-16,-1.021405182655144e-13,4.685925858718125e-16
5800000,0.4092691662716472,12.499976984372237,0.0,-1.021405182655144e-13,4.703833672624695e-16
5850000,0.4257661895170945,12.499976696196063,0.0,-1.0191847366058937e-13,4.721867513208216e-16
5900000,0.44279276763858527,12.499976402419668,-2.220446049250313e-16,-1.021405182655144e-13,4.740029485675625e-16
5950000,0.46035655297657935,12.49997610276086,0.0,-1.021405182655144e-13,4.758321441873947e-16
6000000,0.4784647182586461,12.49997579692332,-2.220446049250313e-16,-1.021405182655144e-13,4.776744968897801e-16
6050000,0.49712392590772037,12.499975484595897,-2.220446049250313e-16,-1.021405182655144e-13,4.795301378634706e-16
6100000,0.5163402988513959,12.49997516545187,0.0,-1.021405182655144e-13,4.8139916983583385e-16
6150000,0.5361193930849204,12.49997483914817,0.0,-1.0236256287043943e-13,4.832816662481146e-16
6200000,0.5564661722321351,12.49997450532456,2.220446049250313e-16,-1.021405182655144e-13,4.851776705572735e-16
6250000,0.577384984336576,12.499974163602792,1.1102230246251565e-16,-1.021405182655144e-13,4.870871956740015e-16
6300000,0.5988795410994027,12.49997381358569,3.3306690738754696e-16,-1.021405182655144e-13,4.890102235464065e-16
6350000,0.6209528997618445,12.499973454856228,1.1102230246251565e-16,-1.021405182655144e-13,4.909467048984374e-16
6400000,0.6436074478076681,12.499973086976526,0.0,-1.021405182655144e-13,4.928965591316119e-16
6450000,0.6668448906360194,12.499972709486823,-3.2583713505118794e-11,-1.021405182655144e-13,4.948596743995467e-16
6500000,0.6906662423272412,12.499972321904378,-4.39914771277472e-12,-1.021405182655144e-13,4.968358979464393e-16
6550000,0.715071819260523,12.49997192372234,-4.631850458736153e-13,-1.021405182655144e-13,4.988250101389675e-16
6600000,0.7400612368061563,12.499971514408541,2.341460358934455e-13,-1.021405182655144e-13,5.008267727437393e-16
6650000,0.7656334120786423,12.499971093404241,3.68993724464417e-12,-1.0191847366058937e-13,5.028409535415795e-16
6700000,0.7917865662900451,12.499970660122816,4.582589863133535e-11,-1.021405182655144e-13,5.048672896666773e-16
6750000,0.818518231749333,12.499970213948366,5.235053501806419e-10,-1.0191847366058937e-13,5.069054886893738e-16
6800000,0.8458252620335184,12.499969754234272,5.456438856299428e-09,-1.0191847366058937e-13,5.089552297710263e-16
6850000,0.8737038452293993,12.499969280301672,5.142043457695422e-08,-1.0191847366058937e-13,5.11016164897913e-16
6900000,0.9021495201153169,12.499968791437867,4.3416337214274847e-07,-1.021405182655144e-13,5.130879201957523e-16
6950000,0.9311571951249056,12.49996828689465,3.25488187602474e-06,-1.0236256287043943e-13,5.151700973216924e-16
7000000,0.9607211699098591,12.499967765886545,2.147396288454395e-05,-1.021405182655144e-13,5.172622749275419e-16
7050000,0.9908351592966628,12.49996722758898,0.00012359956953378326,-1.021405182655144e-13,5.193640101862868e-16
7100000,1.0214923194133767,12.49996667113635,0.0006155250518081745,-1.021405182655144e-13,5.21474840372328e-16
7150000,1.0526852757471161,12.49996609562,0.002631728528602606,-1.021405182655144e-13,5.23594284484578e-16
7200000,1.08440615288103,12.499965500086104,0.00959419597223432,-1.021405182655144e-13,5.257218449015094e-16
7250000,1.1166466056513733,12.499964883533446,0.029654095220134624,-1.021405182655144e-13,5.278570090567257e-16
7300000,1.149397851460702,12.499964244911094,0.07740733205208983,-1.021405182655144e-13,5.299992511232637e-16
7350000,1.1826507034821914,12.49996358311596,0.170431140008098,-1.0191847366058937e-13,5.321480336958956e-16
7400000,1.2163956044924409,12.49996289699024,0.3173087013580147,-1.021405182655144e-13,5.34302809460125e-16
7450000,1.2506226610756535,12.49996218531874,0.5035129435298463,-1.021405182655144e-13,5.364630228376584e-16
7500000,1.2853216779505168,12.49996144682607,0.6912948441668261,-1.021405182655144e-13,5.386281115989986e-16
7550000,1.3204821921821257,12.499960680173704,0.8405616078970989,-1.0191847366058937e-13,5.407975084338668e-16
7600000,1.3560935070545737,12.499959883956897,0.9332431360323926,-1.021405182655144e-13,5.429706424714789e-16
7650000,1.392144725395012,12.499959056701464,0.9777965733723667,-1.021405182655144e-13,5.451469407439138e-16
7700000,1.4286247821566755,12.4999581968604,0.9942337569028386,-1.021405182655144e-13,5.473258295856845e-16
7750000,1.465522476086238,12.499957302810346,0.9988479513604951,-1.021405182655144e-13,5.495067359648891e-16
7800000,1.50282650031953,12.499956372847883,0.999825224859584,-1.0191847366058937e-13,5.516890887409985e-16
7850000,1.5405254717687609,12.499955405185656,0.9999801011197258,-1.0191847366058937e-13,5.53872319846317e-16
7900000,1.5786079591836446,12.499954397948315,0.9999983177948486,-1.021405182655144e-13,5.560558653882336e-16
7950000,1.6170625097879276,12.499953349168274,0.9999998954430338,-1.021405182655144e-13,5.582391666709244e-16
8000000,1.6558776744114752,12.499952256781263,0.9999999952655326,-1.0191847366058937e-13,5.604216711351902e-16
8050000,1.695042031056095,12.499951118621679,0.9999999998451512,-1.021405182655144e-13,5.626028332165994e-16
8100000,1.7345442068504446,12.499949932417726,0.9999999999963712,-1.021405182655144e-13,5.647821151224784e-16
8150000,1.774372898365508,12.499948695786328,0.9999999999999395,-1.0191847366058937e-13,5.669589875287497e-16
8200000,1.81451689027717,12.499947406227815,0.9999999999999993,-1.0191847366058937e-13,5.6913293019836825e-16
8250000,1.8549650723761903,12.499946061120358,1.0,-1.021405182655144e-13,5.713034325235766e-16
8300000,1.895706454938392,12.49994465771417,1.0,-1.021405182655144e-13,5.734699939946346e-16
8350000,1.9367301824790588,12.499943193125429,1.0,-1.021405182655144e-13,5.756321245978746e-16
8400000,1.9780255459253893,12.499941664329933,1.0,-1.0191847366058937e-13,5.777893451463283e-16
8450000,2.019581993249397,12.499940068156489,1.0,-1.0191847366058937e-13,5.799411875465159e-16
8500000,2.061389138610912,12.499938401279987,1.0,-1.021405182655144e-13,5.820871950048846e-16
8550000,2.1034367700663688,12.49993666021419,1.0,-1.0191847366058937e-13,5.842269221777345e-16
8600000,2.14571485590395,12.499934841304201,1.0,-1.0191847366058937e-13,5.863599352683862e-16
8650000,2.1882135496694333,12.499932940718601,1.0,-1.021405182655144e-13,5.884858120755553e-16
8700000,2.2309231939498786,12.499930954441266,1.0,-1.021405182655144e-13,5.906041419967573e-16
8750000,2.273834322984143,12.49992887826282,1.0,-1.0191847366058937e-13,5.927145259904391e-16
8800000,2.316937664170256,12.499926707771735,1.0,-1.0191847366058937e-13,5.948165765007318e-16
