Timestep (s),Sum Voltage (V),Carry Out Voltage (V),Sum Error Rate (Dimless),Carry Out Error Rate (Dimless),Energy Dissipation (J)
0,12.451831814117822,12.451889210042491,-6.217248937900877e-15,1.0,9.13011769037785e-16
50000,12.405928493201198,12.449406272028304,1.1102230246251565e-16,1.0,9.162868482486593e-16
100000,12.362183584073678,12.446435505947237,-2.220446049250313e-16,1.0,9.476746898613693e-16
150000,12.320495665583044,12.437969338502514,0.0,1.0,1.033585319222261e-15
200000,12.280768088713018,12.42731963807597,-2.220446049250313e-16,1.0,1.0488132145449006e-15
250000,12.242908750562071,12.423776296107368,-2.220446049250313e-16,1.0,1.1174401600470106e-15
300000,12.206829879280846,12.422037395881572,0.0,1.0,1.1456072794458343e-15
350000,12.172447829399786,12.373986065108584,-2.220446049250313e-16,1.0,1.2274179111205403e-15
400000,12.139682887009993,12.325818814951523,1.1102230246251565e-16,1.0,1.229218949450187e-15
450000,12.108459084295184,12.280336784350812,1.1102230246251565e-16,1.0,1.23097105424088e-15
500000,12.078704022941906,12.232190813535041,2.220446049250313e-16,1.0,1.2327442572057565e-15
550000,12.050348705981472,12.217911069093569,4.440892098500626e-16,1.0,1.2344778831324508e-15
600000,12.023327377644284,12.189130581971167,8.881784197001252e-16,1.0,1.243411874662651e-15
650000,11.997577370829097,12.182559468372652,0.0,1.0,1.286123505094668e-15
700000,11.973038961813105,12.179949316286791,1.0669243266647754e-13,1.0,1.3061150885665253e-15
750000,11.949655231848018,12.132114537944505,4.440892098500626e-16,1.0,1.367262621462945e-15
800000,11.927371935306605,12.13121020151293,0.0,1.0,1.3767616044233356e-15
850000,11.906137374062311,12.131115037951375,-6.661338147750939e-16,1.0,1.4325062754901275e-15
900000,11.88590227780061,12.099258615712612,-1.3322676295501878e-15,1.0,1.506850016025142e-15
950000,11.866619689976721,12.076609674015083,-1.5543122344752192e-15,1.0,1.5404493533210324e-15
1000000,11.848244859148513,12.030404417477598,-1.0681677764523556e-10,1.0,1.5446284959716886e-15
1050000,11.830735135427812,12.026510126017909,-2.6777247086329226e-11,1.0,1.5625201978872082e-15
1100000,11.8140498718055,12.026130082946276,-6.621592163469359e-12,1.0,1.592471709932737e-15
1150000,11.79815033011872,11.991685543767751,-1.6264767310758543e-12,1.0,1.6480861465639077e-15
1200000,11.782999591439072,11.94352570697716,-3.788080960021034e-13,1.0,1.6753157409661952e-15
1250000,11.768562470672904,11.909025950468973,1.199040866595169e-14,1.0,1.6767496884100074e-15
1300000,11.754805435173534,11.861010351387511,4.4508841057222526e-13,1.0,1.6786786493047936e-15
1350000,11.74169652717628,11.854431359263538,1.7741363933510002e-12,1.0,1.6828032680548615e-15
1400000,11.729205289875367,11.85079379695104,6.134648344868765e-12,1.0,1.7020309600591202e-15
1450000,11.717302696971176,11.808017620472977,1.939137739270791e-11,1.0,1.737670803980998e-15
1500000,11.705961085524207,11.759861345581957,5.65700819521453e-11,1.0,1.7552055019500436e-15
1550000,11.695154091960111,11.72608577979977,1.5327583646751464e-10,1.0,1.7565922488479893e-15
1600000,11.68485659107751,11.67803694828719,3.8790226586371546e-10,1.0,1.758441451938289e-15
1650000,11.675044637917592,11.664910098410166,9.216918339660651e-10,1.0,1.7614421003267784e-15
1700000,11.665695412360646,11.62360723026606,2.065997040112677e-09,1.0,1.7693242140410445e-15
1750000,11.656787166321859,11.575603281156143,4.387846974651666e-09,1.0,1.7846963188763424e-15
1800000,11.648299173424185,11.559407128498593,8.865305822780556e-09,1.0,1.788112729273433e-15
1850000,11.640211681031941,11.513147018203798,1.7102424254566984e-08,1.0,1.7935385858347598e-15
1900000,11.632505864534547,11.465008892324263,3.160933381707309e-08,1.0,1.8034406024381476e-15
1950000,11.625163783774832,11.434794412990518,5.61462251136291e-08,1.0,1.804895817338979e-15
2000000,11.61816834152118,11.386738398943844,9.6121177239894e-08,1.0,1.8068229619054327e-15
2050000,11.611503243887826,11.362183290095,1.590221958558402e-07,1.0,1.8092628377725286e-15
2100000,11.605152962612046,11.314226982285943,2.548548436731579e-07,1.0,1.8117782180856637e-15
2150000,11.599102699101019,11.283974760350874,3.965500274816236e-07,1.0,1.815119795788031e-15
2200000,11.59333835016553,11.235887327293485,6.003031137735704e-07,1.0,1.8169381177883202e-15
2250000,11.58784647536131,11.204362952413415,8.858063018646334e-07,1.0,1.818873863008361e-15
2300000,11.582614265862885,11.156252827527643,1.2763412385874418e-06,1.0,1.8205619005771293e-15
2350000,11.577629514797888,11.121111192273936,1.7987076420533654e-06,1.0,1.822217263123611e-15
2400000,11.572880588973527,11.072973999081965,2.482975182460656e-06,1.0,1.8237064424095134e-15
2450000,11.568356401929892,11.03339291719279,3.3620587147620284e-06,1.0,1.825098113380392e-15
2500000,11.564046388257909,10.985238849229976,4.471129694594289e-06,1.0,1.826455963510905e-15
2550000,11.559940479122652,10.941330478815985,5.846888003868678e-06,1.0,1.8277452721611367e-15
2600000,11.55602907893558,10.893167765481302,7.526727370366082e-06,1.0,1.829039872262295e-15
2650000,11.552303043121722,10.846383845015142,9.54783356754696e-06,1.0,1.8303072524471416e-15
2700000,11.54875365693064,10.79821787310234,1.1946257249095815e-05,1.0,1.8315762802884966e-15
2750000,11.54537261524202,10.750310527567905,1.475600288325385e-05,1.0,1.8328348155150514e-15
2800000,11.54215200331943,10.702143820955525,1.8008172071759532e-05,1.0,1.834088204783862e-15
2850000,11.539084278467683,10.654001586836847,2.1730194249003354e-05,1.0,1.835334133382536e-15
2900000,11.53616225255153,10.605834881643554,2.5945170981089838e-05,1.0,1.8365731306682e-15
2950000,11.533379075335143,10.557668710288928,3.0671352560296405e-05,1.0,1.837805042689527e-15
3000000,11.530728218603995,10.50950196014071,3.592175788658114e-05,1.0,1.8390299419473456e-15
3050000,11.528203461032444,10.461335405102904,4.170394132196886e-05,1.0,1.840247881081513e-15
3100000,11.525798873761952,10.413168905657583,4.8019903659879404e-05,1.0,1.8414589178571303e-15
3150000,11.523508806656707,10.36500247489743,5.486613884897462e-05,1.0,1.842663105933505e-15
3200000,11.521327875204765,10.316836115948398,6.223380379066779e-05,1.0,1.843860496426673e-15
3250000,11.519250948034488,10.268669832339715,7.010899541959326e-05,1.0,1.8450511379454414e-15
3300000,11.517273135017394,10.220503627792842,7.847311734177076e-05,1.0,1.8462350767147098e-15
3350000,11.515389775929878,10.17233750620814,8.730331741924058e-05,1.0,1.8474123566902782e-15
3400000,11.51359642964759,10.124171471684479,9.657297772269757e-05,1.0,1.8485830196679053e-15
3450000,11.51188886384747,10.07600552851207,0.00010625223902205327,1.0,1.8497471053872694e-15
3500000,11.510263045193616,10.02783968119644,0.00011630854332600471,1.0,1.8509046516303228e-15
3550000,11.508715129984246,9.979673934472375,0.00012670717969431866,1.0,1.8520556943152383e-15
3600000,11.507241455238137,9.931508293302693,0.0001374118205156316,1.0,1.853200267585247e-15
3650000,11.505838530199899,9.88334276289059,0.00014838503752656607,1.0,1.8543384038934798e-15
3700000,11.504503028244416,9.835177348704708,0.0001595887889429548,1.0,1.8554701340834487e-15
3750000,11.503231779161712,9.78701205648189,0.00017098487108002658,1.0,1.85659548746558e-15
3800000,11.502021761804379,9.738846892237744,0.00018253532972967168,1.0,1.85771449189001e-15
3850000,11.500870097080542,9.69068186228752,0.00019420282824689217,1.0,1.85882717381582e-15
3900000,11.499774041276138,9.642516973257584,0.00020595097080255975,1.0,1.8599335583768563e-15
3950000,11.498730979691029,9.594352232099629,0.0002177445805233713,1.0,1.861033669444278e-15
4000000,11.497738420574233,9.546187646107503,0.0002295499333149209,1.0,1.8621275296861314e-15
4050000,11.496793989344189,9.498023222941617,0.00024133494900102637,1.0,1.863215160624021e-15
4100000,11.495895423080716,9.449858970632619,0.00025306934208257914,1.0,1.864296582686843e-15
4150000,11.495040565275847,9.401694897612224,0.00026472473489680404,1.0,1.8653718152620366e-15
4200000,11.494227360831443,9.353531012730976,0.0002762747362878848,1.0,1.8664408767443457e-15
4250000,11.493453851291921,9.305367325263095,0.00028769498909286817,1.0,1.8675037845821315e-15
4300000,11.492718170301115,9.257203844952466,0.0002989631898394629,1.0,1.868560555321374e-15
4350000,11.492018539272697,9.209040582020052,0.0003100590840223738,1.0,1.869611204647682e-15
4400000,11.491353263264156,9.160877547191824,0.00032096444026519233,1.0,1.870655747426028e-15
4450000,11.490720727044748,9.112714751713341,0.00033166300651821246,1.0,1.871694197738761e-15
4500000,11.490119391348316,9.064552207402492,0.00034214045126557124,1.0,1.8727265689216703e-15
4550000,11.489547789302291,9.016389926652392,0.00035238429250439296,1.0,1.873752873598143e-15
4600000,11.4890045230246,8.968227922456485,0.0003623838170296878,1.0,1.874773123711842e-15
4650000,11.488488260380581,8.920066208462554,0.0003721299923161725,1.0,1.875787330557767e-15
4700000,11.487997731892406,8.871904798992995,0.00038161537305314575,1.0,1.8767955048114986e-15
4750000,11.487531727793828,8.823743709061484,0.00039083400414274827,1.0,1.8777976565575344e-15
4800000,11.487089095223432,8.775582954439205,0.00039978132175644276,1.0,1.8787937953156576e-15
4850000,11.486668735549886,8.727422551664727,0.00040845405381495503,1.0,1.879783930066438e-15
4900000,11.486269601822968,8.67926251809366,0.0004168501210614073,1.0,1.880768069275087e-15
4950000,11.485890696344503,8.631102871937113,0.00042496853970908077,1.0,1.881746220914469e-15
5000000,11.485531068353536,8.582943632313086,0.00043280932646860837,1.0,1.882718392486824e-15
5050000,11.48518981182038,8.534784819274307,0.00044037340661562396,1.0,1.8836845910444134e-15
5100000,11.484866063344452,8.486626453862792,0.0004476625256075728,1.0,1.88464482320886e-15
5150000,11.484559000150982,8.438468558157483,0.0004546791646453663,1.0,1.8855990951901027e-15
5200000,11.484267838181982,8.390311155324842,0.0004614264604686502,1.0,1.886547412803927e-15
5250000,11.483991830277017,8.342154269678039,0.00046790812956643,1.0,1.8874897814885386e-15
5300000,11.483730264439595,8.293997926729297,0.0004741283969231791,1.0,1.8884262063208877e-15
5350000,11.483482462185128,8.245842153241577,0.00048009192933751166,1.0,1.8893566920313565e-15
5400000,11.483247776966627,8.19768697730162,0.0004858037733000975,1.0,1.890281243018235e-15
5450000,11.483025592674512,8.149532428388323,0.0004912692973656485,1.0,1.891199863361308e-15
5500000,11.482815322207031,8.101378537420068,0.0004964941389175026,1.0,1.8921125568346513e-15
5550000,11.482616406107976,8.053225336847234,0.0005014841551945759,1.0,1.893019326918818e-15
5600000,11.482428311268533,8.005072860715801,0.0005062453784188126,1.0,1.8939201768124314e-15
5650000,11.482250529690274,7.956921144753252,0.0005107839748481613,1.0,1.8948151094429928e-15
5700000,11.482082577306402,7.908770226442138,0.0005151062075706703,1.0,1.8957041274772327e-15
5750000,11.481923992858512,7.86062014511963,0.0005192184028344204,1.0,1.896587233330872e-15
5800000,11.481774336826282,7.812470942059064,0.000523126919718786,1.0,1.897464429177925e-15
5850000,11.4816331904076,7.764322660567049,0.0005268381229355246,1.0,1.8983357169593127e-15
5900000,11.481500154546747,7.716175346080395,0.0005303583585611893,1.0,1.8992010983910614e-15
5950000,11.481374849008413,7.668029046278568,0.000533693932497914,1.0,1.9000605749721744e-15
6000000,11.481256911495361,7.6198838111868525,0.0005368510914666169,1.0,1.9009141479917155e-15
6050000,11.48114599680773,7.571739693295506,0.0005398360063431085,1.0,1.9017618185359097e-15
6100000,11.481041776041987,7.523596747682897,0.0005426547576525831,1.0,1.9026035874944763e-15
6150000,11.480943935827712,7.475455032134166,0.0005453133230518548,1.0,1.9034394555668002e-15
6200000,11.480852177600399,7.4273146072801985,0.0005478175666258078,1.0,1.904269423267518e-15
6250000,11.480766216908624,7.379175536745009,0.0005501732298467399,1.0,1.9050934909319923e-15
6300000,11.480685782753955,7.331037887276644,0.0005523859240412765,1.0,1.905911658721325e-15
6350000,11.480610616962075,7.282901728915507,0.0005544611242318531,1.0,1.9067239266269523e-15
6400000,11.480540473583652,7.234767135137735,0.000556404164213653,1.0,1.9075302944751306e-15
6450000,11.48047511832358,7.186634183053062,0.0005582202327519825,1.0,1.9083307619309866e-15
6500000,11.480413918911765,7.138502953554086,0.0005599257874823182,1.0,1.909125328148737e-15
6550000,11.48035518401931,7.090373531511334,0.0005615671886399776,1.0,1.909913991205952e-15
6600000,11.480298851723585,7.04224600597263,0.000563145625289696,1.0,1.9106967504308828e-15
6650000,11.480244856240299,6.994120470375019,0.0005646624332643624,1.0,1.9114736049922313e-15
6700000,11.48019312910755,6.945997022735165,0.0005661190615341427,1.0,1.912244553903557e-15
6750000,11.480143600150715,6.897875765899639,0.0005675170441705735,1.0,1.9130095960272566e-15
6800000,11.480096198268532,6.849756807767941,0.0005688579769355107,1.0,1.913768730078088e-15
6850000,11.480050852072683,6.801640261539678,0.0005701434977054554,1.0,1.9145219546263803e-15
6900000,11.48000749040698,6.753526245984669,0.0005713752701083097,1.0,1.915269268100977e-15
6950000,11.479966042767243,6.70541488569894,0.0005725549698432086,1.0,1.916010668791792e-15
7000000,11.479926439639103,6.657306311406062,0.0005736842732624314,1.0,1.9167461548524323e-15
7050000,11.479888612767786,6.609200660249203,0.00057476484786112,1.0,1.917475724302175e-15
7100000,11.479852495371484,6.56109807609921,0.0005757983443804848,1.0,1.9181993750280917e-15
7150000,11.47981802230783,6.512998709888019,0.0005767863902849113,1.0,1.918917104787017e-15
7200000,11.479785130201414,6.464902719965053,0.0005777305843973624,1.0,1.9196289112070864e-15
7250000,11.4797537575389,6.4168102724306735,0.0005786324925307618,1.0,1.920334791789416e-15
7300000,11.479723844737233,6.368721541551369,0.0005794936439585952,1.0,1.921034743909775e-15
7350000,11.479695334189504,6.320636710125009,0.0005803155286108197,1.0,1.921728764819679e-15
7400000,11.479668170292316,6.27255596990678,0.0005810995948762887,1.0,1.9224168516480397e-15
7450000,11.479642299457872,6.224479522061176,0.0005818472479329762,1.0,1.923099001402385e-15
7500000,11.479617670113502,6.1764075775886145,0.0005825598485212913,1.0,1.9237752109700224e-15
7550000,11.479594232690893,6.128340357836208,0.0005832387120932037,1.0,1.9244454771196223e-15
7600000,11.479571939606974,6.080278094971409,0.0005838851082853314,1.0,1.9251097965022376e-15
7650000,11.479550745238063,6.032221032524167,0.0005845002606594818,1.0,1.925768165652719e-15
7700000,11.479530605888668,5.984169425938232,0.0005850853466742301,1.0,1.9264205809912157e-15
7750000,11.47951147975609,5.936123543137178,0.0005856414978443469,1.0,1.9270670388245307e-15
7800000,11.479493326891829,5.888083665140613,0.0005861698000617643,1.0,1.9277075353477042e-15
7850000,11.479476109160615,5.840050086682258,0.0005866712940445495,1.0,1.9283420666456795e-15
7900000,11.479459790197764,5.7920231168892276,0.0005871469758971237,1.0,1.928970628695212e-15
7950000,11.47944433536547,5.744003079963011,0.0005875977977517488,1.0,1.9295932173668222e-15
8000000,11.479429711708523,5.695990315915677,0.0005880246684810686,1.0,1.9302098284269186e-15
8050000,11.479415887909871,5.647985181323149,0.000588428454460499,1.0,1.9308204575403214e-15
8100000,11.479402834246393,5.5999880501267505,0.0005888099803719182,1.0,1.9314251002728934e-15
8150000,11.479390522545168,5.551999314458485,0.0005891700300313385,1.0,1.9320237520943984e-15
8200000,11.4793789261405,5.504019385522283,0.0005895093472337853,1.0,1.932616408382003e-15
8250000,11.479368019831893,5.456048694502581,0.0005898286366081695,1.0,1.933203064423651e-15
8300000,11.479357779843154,5.408087693523708,0.0005901285644668297,1.0,1.9337837154221634e-15
8350000,11.479348183782749,5.3601368566333445,0.0005904097596556301,1.0,1.9343583564997477e-15
8400000,11.47933921060555,5.312196680873198,0.0005906728143848516,1.0,1.93492698270266e-15
8450000,11.479330840576033,5.264267687345884,0.0005909182850498684,1.0,1.9354895890067144e-15
8500000,11.47932305523301,5.216350422371681,0.0005911466930256237,1.0,1.936046170323333e-15
8550000,11.479315837355964,5.168445458684776,0.0005913585254390119,1.0,1.9365967215057995e-15
8600000,11.479309170932993,5.12055339667217,0.0005915542359156145,1.0,1.9371412373566576e-15
8650000,11.479303041130416,5.072674865678133,0.0005917342452935737,1.0,1.9376797126353413e-15
8700000,11.479297434264055,5.024810525377336,0.0005918989423085996,1.0,1.9382121420669177e-15
8750000,11.479292337772186,4.976961067192409,0.0005920486842454498,1.0,1.9387385203513503e-15
8800000,11.479287740190175,4.9291272157738595,0.0005921837975536581,1.0,1.939258842173796e-15
8850000,11.479283631126783,4.881309730558178,0.00059230457843229,1.0,1.9397731022156928e-15
8900000,11.47928000124213,4.833509407389709,0.0005924112933736181,1.0,1.940281295166773e-15
8950000,11.479276842227295,4.785727080206235,0.0005925041796751573,1.0,1.940783415738434e-15
9000000,11.479274146785547,4.737963622808295,0.0005925834459136192,1.0,1.9412794586777894e-15
9050000,11.479271908615155,4.690219950683272,0.000592649272384449,1.0,1.9417694187831135e-15
9100000,11.47927012239376,4.642497022938869,0.0005927018115030602,1.0,1.9422532909204896e-15
9150000,11.479268783764281,4.594795844294877,0.0005927411881740952,1.0,1.94273107004172e-15
9200000,11.479267889322308,4.547117467157494,0.0005927675001228261,1.0,1.9432027512037966e-15
9250000,11.479267436604944,4.499462993785755,0.000592780818196359,1.0,1.9436683295895618e-15
9300000,11.479267424081058,4.451833578553764,0.0005927811866290877,1.0,1.9441278005300994e-15
9350000,11.479267851142893,4.4042304303054145,0.0005927686232770624,1.0,1.9445811595287482e-15
9400000,11.479268718098988,4.35665481476365,0.0005927431198242683,1.0,1.9450284022866406e-15
9450000,11.479270026168356,4.3091080570993885,0.0005927046419563764,1.0,1.945469524730335e-15
9500000,11.479271777475876,4.261591544560223,0.0005926531295101789,1.0,1.9459045230407664e-15
9550000,11.479273975048807,4.214106729199019,0.0005925884965960471,1.0,1.9463333936847436e-15
9600000,11.47927662281439,4.166655130709462,0.000592510631696519,1.0,1.9467561334480404e-15
9650000,11.479279725598472,4.1192383393959435,0.0005924193977442371,1.0,1.947172739470705e-15
9700000,11.479283289125044,4.071858019206081,0.0005923146321797912,1.0,1.947583209284536e-15
9750000,11.47928732001666,4.024515910901975,0.0005921961469941284,1.0,1.9479875408527207e-15
9800000,11.479291825795622,3.977213835336983,0.0005920637287550878,1.0,1.9483857326117126e-15
9850000,11.47929681488586,3.9299536968424342,0.0005919171386233879,1.0,1.9487777835157047e-15
9900000,11.479302296615408,3.8827374867270827,0.0005917561123615078,1.0,1.949163693083059e-15
9950000,11.479308281219373,3.835567286892965,0.0005915803603381287,1.0,1.949543461445577e-15
10000000,11.479314779843294,3.7884452735677465,0.0005913895675271341,1.0,1.9499170894000445e-15
10050000,11.479321804546775,3.7413737211486016,0.0005911833935162703,1.0,1.9502845784621786e-15
10100000,11.479329368307265,3.694355006156614,0.0005909614725170265,1.0,1.950645930923308e-15
10150000,11.479337485023876,3.6473916113087954,0.0005907234133866179,1.0,1.951001149909221e-15
10200000,11.479346169521063,3.6004861296976483,0.0005904687996687308,1.0,1.951350239441677e-15
10250000,11.479355437552059,3.553641269093138,0.0005901971896511427,1.0,1.951693204502435e-15
10300000,11.479365305801885,3.5068598563225137,0.000589908116451543,1.0,1.9520300510994645e-15
10350000,11.479375791889778,3.460144841774693,0.000589601088132885,1.0,1.952360786335241e-15
10400000,11.479386914370869,3.4134993039895627,0.0005892755878580402,1.0,1.952685418477722e-15
10450000,11.479398692736913,3.3669264543401463,0.0005889310740847531,1.0,1.9530039570329554e-15
