Timestep (s),Sum Voltage (V),Carry Out Voltage (V),Sum Error Rate (Dimless),Carry Out Error Rate (Dimless),Energy Dissipation (J)
0,12.451831814117822,12.499999865151315,1.0,-1.021405182655144e-13,2.607200284980435e-16
50000,12.405928493201198,12.499999730301925,1.0,-1.0236256287043943e-13,2.627005445701909e-16
100000,12.362183584073678,12.499999595451657,1.0,-1.0236256287043943e-13,2.646514272134964e-16
150000,12.320495665583044,12.499999460600261,1.0,-1.0236256287043943e-13,2.6657396123624063e-16
200000,12.28076808871305,12.499999325747414,1.0,-1.021405182655144e-13,2.6846935761398357e-16
250000,12.242908750562043,12.499999190892717,1.0,-1.021405182655144e-13,2.7033875830295277e-16
300000,12.206829879280884,12.499999056035703,1.0,-1.021405182655144e-13,2.721832407015583e-16
350000,12.172447829399998,12.499998921175838,1.0,-1.021405182655144e-13,2.7400382179326215e-16
400000,12.139682887010304,12.499998786312515,1.0,-1.0236256287043943e-13,2.75801461996348e-16
450000,12.108459084295607,12.499998651445066,1.0,-1.021405182655144e-13,2.7757706874403843e-16
500000,12.078704022942434,12.499998516572754,1.0,-1.021405182655144e-13,2.793314998161021e-16
550000,12.050348705982197,12.499998381694772,1.0,-1.0236256287043943e-13,2.810655664414967e-16
600000,12.023327377645241,12.499998246810245,1.0,-1.0236256287043943e-13,2.8278003618986555e-16
650000,11.997577370830298,12.49999811191823,1.0,-1.0236256287043943e-13,2.8447563566829144e-16
700000,11.973038961814508,12.499997977017712,1.0,-1.0236256287043943e-13,2.861530530382445e-16
750000,11.949655231849656,12.4999978421076,1.0,-1.0236256287043943e-13,2.8781294036666886e-16
800000,11.927371935308434,12.499997707186733,1.0,-1.021405182655144e-13,2.8945591582339336e-16
850000,11.906137374064299,12.499997572253866,1.0,-1.021405182655144e-13,2.910825657370117e-16
900000,11.885902277802778,12.499997437307677,1.0,-1.021405182655144e-13,2.926934465195729e-16
950000,11.866619689978984,12.499997302346758,1.0,-1.021405182655144e-13,2.942890864697996e-16
1000000,11.84824485915093,12.499997167369617,1.0,-1.0236256287043943e-13,2.958699874645048e-16
1050000,11.830735135430329,12.499997032374669,1.0,-1.0236256287043943e-13,2.9743662654550944e-16
1100000,11.814049871808146,12.499996897360237,1.0,-1.0236256287043943e-13,2.9898945741088416e-16
1150000,11.798150330121425,12.499996762324544,1.0,-1.021405182655144e-13,3.0052891181675344e-16
1200000,11.782999591441827,12.499996627265713,1.0,-1.021405182655144e-13,3.020554008968093e-16
1250000,11.768562470675658,12.499996492181756,1.0,-1.0236256287043943e-13,3.035693164052706e-16
1300000,11.754805435176266,12.499996357070577,1.0,-1.0236256287043943e-13,3.0507103188915217e-16
1350000,11.74169652717902,12.499996221929962,1.0,-1.0236256287043943e-13,3.0656090379515704e-16
1400000,11.729205289878175,12.499996086757575,1.0,-1.021405182655144e-13,3.080392725158856e-16
1450000,11.717302696974082,12.49999595155095,1.0,-1.021405182655144e-13,3.0950646338012055e-16
1500000,11.705961085527273,12.499995816307491,1.0,-1.0236256287043943e-13,3.109627875915082e-16
1550000,11.695154091963376,12.499995681024457,1.0,-1.021405182655144e-13,3.124085431195663e-16
1600000,11.684856591081031,12.499995545698962,1.0,-1.021405182655144e-13,3.138440155469759e-16
1650000,11.67504463792139,12.499995410327966,1.0,-1.021405182655144e-13,3.152694788767798e-16
1700000,11.665695412364744,12.499995274908267,1.0,-1.021405182655144e-13,3.166851963029041e-16
1750000,11.65678716632629,12.499995139436495,1.0,-1.021405182655144e-13,3.1809142094755556e-16
1800000,11.64829917342898,12.499995003909099,1.0,-1.021405182655144e-13,3.1948839656859596e-16
1850000,11.64021168103714,12.499994868322345,1.0,-1.021405182655144e-13,3.2087635824028656e-16
1900000,11.63250586454022,12.4999947326723,1.0,-1.021405182655144e-13,3.222555330105577e-16
1950000,11.625163783781025,12.499994596954831,1.0,-1.0236256287043943e-13,3.2362614053816086e-16
2000000,11.618168341527927,12.499994461165585,1.0,-1.0236256287043943e-13,3.2498839371307423e-16
2050000,11.611503243895177,12.499994325299985,1.0,-1.0236256287043943e-13,3.263424992637111e-16
2100000,11.605152962620059,12.499994189353218,1.0,-1.021405182655144e-13,3.276886583548432e-16
2150000,11.599102699109753,12.499994053320224,1.0,-1.021405182655144e-13,3.290270671802785e-16
2200000,11.593338350175024,12.499993917195678,1.0,-1.021405182655144e-13,3.303579175551277e-16
2250000,11.587846475371622,12.499993780973984,1.0,-1.021405182655144e-13,3.3168139751287193e-16
2300000,11.582614265874074,12.499993644649258,1.0,-1.021405182655144e-13,3.329976919134594e-16
2350000,11.577629514810026,12.499993508215317,1.0,-1.0236256287043943e-13,3.343069830697816e-16
2400000,11.572880588986687,12.49999337166566,1.0,-1.0236256287043943e-13,3.35609451401299e-16
2450000,11.568356401944136,12.499993234993452,1.0,-1.021405182655144e-13,3.369052761257143e-16
2500000,11.564046388273338,12.499993098191512,1.0,-1.021405182655144e-13,3.381946360023806e-16
2550000,11.55994047913936,12.499992961252293,1.0,-1.0236256287043943e-13,3.3947771014407367e-16
2600000,11.556029078953653,12.499992824167862,1.0,-1.021405182655144e-13,3.4075467891957937e-16
2650000,11.552303043141288,12.499992686929884,1.0,-1.0236256287043943e-13,3.420257249756353e-16
2700000,11.548753656951817,12.499992549529603,1.0,-1.021405182655144e-13,3.4329103441561343e-16
2750000,11.545372615264938,12.499992411957814,1.0,-1.021405182655144e-13,3.445507981863754e-16
2800000,11.542152003344224,12.499992274204851,1.0,-1.021405182655144e-13,3.4580521374192627e-16
2850000,11.539084278494494,12.499992136260554,1.0,-1.0236256287043943e-13,3.470544870798663e-16
2900000,11.536162252580503,12.49999199811425,1.0,-1.021405182655144e-13,3.482988352859612e-16
2950000,11.53337907536642,12.49999185975473,1.0,-1.021405182655144e-13,3.495384897807753e-16
3000000,11.530728218637726,12.49999172117021,1.0,-1.021405182655144e-13,3.5077370055371863e-16
3050000,11.528203461068792,12.499991582348319,1.0,-1.021405182655144e-13,3.5200474181368173e-16
3100000,11.525798873801097,12.499991443276057,1.0,-1.021405182655144e-13,3.5323191971870435e-16
3150000,11.523508806698835,12.49999130393977,1.0,-1.021405182655144e-13,3.5445558324018124e-16
3200000,11.521327875250066,12.499991164325115,1.0,-1.0236256287043943e-13,3.556740571657077e-16
3250000,11.519250948083162,12.499991024417026,1.0,-1.021405182655144e-13,3.5688765888346673e-16
3300000,11.517273135069656,12.499990884199677,1.0,-1.0236256287043943e-13,3.58096528121739e-16
3350000,11.515389775985955,12.499990743656445,1.0,-1.021405182655144e-13,3.5929920284213946e-16
3400000,11.513596429707723,12.499990602769872,1.0,-1.0236256287043943e-13,3.604960364216174e-16
3450000,11.511888863911917,12.499990461521618,1.0,-1.0236256287043943e-13,3.6168734157037796e-16
3500000,11.510263045262644,12.499990319892422,1.0,-1.021405182655144e-13,3.6287340115316135e-16
3550000,11.508715130058137,12.499990177862054,1.0,-1.021405182655144e-13,3.640544758444252e-16
3600000,11.50724145531719,12.499990035409267,1.0,-1.021405182655144e-13,3.6523080968413607e-16
3650000,11.50583853028443,12.499989892511744,1.0,-1.021405182655144e-13,3.6640263420088145e-16
3700000,11.504503028334756,12.499989749146048,1.0,-1.021405182655144e-13,3.67570171531987e-16
3750000,11.503231779258211,12.499989605287563,1.0,-1.021405182655144e-13,3.6873363682559247e-16
3800000,11.502021761907407,12.499989460910438,1.0,-1.0236256287043943e-13,3.698932401177677e-16
3850000,11.50087009719049,12.49998931598752,1.0,-1.021405182655144e-13,3.710491878179819e-16
3900000,11.499774041393414,12.499989170490295,1.0,-1.021405182655144e-13,3.722016838975546e-16
3950000,11.498730979816061,12.499989024388816,1.0,-1.021405182655144e-13,3.733509308479969e-16
4000000,11.497738420707472,12.499988877651631,1.0,-1.0236256287043943e-13,3.7449713045858136e-16
4050000,11.496793989486113,12.499988730245713,1.0,-1.021405182655144e-13,3.756404844485303e-16
4100000,11.495895423231822,12.499988582136373,1.0,-1.0236256287043943e-13,3.7678119498075457e-16
4150000,11.495040565436664,12.499988433287182,1.0,-1.0236256287043943e-13,3.7791946507677656e-16
4200000,11.494227361002523,12.499988283659883,1.0,-1.021405182655144e-13,3.7905549894771133e-16
4250000,11.493453851473843,12.499988133214298,1.0,-1.0236256287043943e-13,3.8018950225248933e-16
4300000,11.49271817049449,12.499987981908237,1.0,-1.021405182655144e-13,3.813216822918798e-16
4350000,11.492018539478167,12.499987829697389,1.0,-1.021405182655144e-13,3.8245224814435813e-16
4400000,11.491353263482395,12.499987676535222,1.0,-1.021405182655144e-13,3.8358141074878747e-16
4450000,11.490720727276468,12.49998752237287,1.0,-1.021405182655144e-13,3.8470938293746524e-16
4500000,11.49011939159426,12.499987367159015,1.0,-1.0236256287043943e-13,3.858363794218722e-16
4550000,11.489547789563241,12.499987210839768,1.0,-1.021405182655144e-13,3.869626167332109e-16
4600000,11.489004523301379,12.499987053358534,1.0,-1.0236256287043943e-13,3.88088313119128e-16
4650000,11.488488260674053,12.499986894655883,1.0,-1.0236256287043943e-13,3.8921368839735733e-16
4700000,11.487997732203485,12.499986734669404,1.0,-1.021405182655144e-13,3.9033896376727934e-16
4750000,11.487531728123473,12.499986573333556,1.0,-1.021405182655144e-13,3.914643615796758e-16
4800000,11.48708909557265,12.499986410579513,1.0,-1.021405182655144e-13,3.9259010506518857e-16
4850000,11.486668735919729,12.499986246335,1.0,-1.021405182655144e-13,3.937164180220531e-16
4900000,11.486269602214545,12.499986080524119,1.0,-1.021405182655144e-13,3.9484352446333253e-16
4950000,11.485890696758979,12.499985913067166,1.0,-1.021405182655144e-13,3.9597164822449863e-16
5000000,11.485531068792133,12.499985743880442,1.0,-1.0236256287043943e-13,3.971010125318736e-16
5050000,11.485189812284386,12.499985572876056,1.0,-1.0236256287043943e-13,3.982318395331812e-16
5100000,11.484866063835218,12.49998539996171,1.0,-1.021405182655144e-13,3.9936434979100215e-16
5150000,11.48455900066993,12.499985225040483,1.0,-1.021405182655144e-13,4.0049876174111736e-16
5200000,11.4842678387306,12.499985048010593,1.0,-1.021405182655144e-13,4.0163529111716476e-16
5250000,11.483991830856873,12.499984868765166,1.0,-1.0236256287043943e-13,4.027741503441094e-16
5300000,11.483730265052335,12.499984687191967,1.0,-1.021405182655144e-13,4.039155479027615e-16
5350000,11.483482462832477,12.499984503173142,1.0,-1.0191847366058937e-13,4.050596876685519e-16
5400000,11.483247777650398,12.49998431658493,1.0,-1.0236256287043943e-13,4.0620676822784467e-16
5450000,11.483025593396611,12.499984127297376,1.0,-1.021405182655144e-13,4.0735698217535823e-16
5500000,11.482815322969458,12.49998393517401,1.0,-1.021405182655144e-13,4.085105153970797e-16
5550000,11.48261640691283,12.49998374007153,1.0,-1.021405182655144e-13,4.096675463431132e-16
5600000,11.482428312118023,12.499983541839457,1.0,-1.021405182655144e-13,4.10828245295226e-16
5650000,11.482250530586716,12.49998334031978,1.0,-1.021405182655144e-13,4.119927736345388e-16
5700000,11.482082578252228,12.499983135346572,1.0,-1.021405182655144e-13,4.1316128311467397e-16
5750000,11.481923993856277,12.499982926745602,1.0,-1.021405182655144e-13,4.143339151463223e-16
5800000,11.48177433787867,12.499982714333916,1.0,-1.021405182655144e-13,4.1551080009896144e-16
5850000,11.481633191517428,12.499982497919401,1.0,-1.021405182655144e-13,4.1669205662612587e-16
5900000,11.481500155716976,12.49998227730033,1.0,-1.0236256287043943e-13,4.1787779102003965e-16
5950000,11.481374850242148,12.499982052264881,1.0,-1.0236256287043943e-13,4.1906809660212934e-16
6000000,11.481256912795866,12.499981822590637,1.0,-1.021405182655144e-13,4.202630531552109e-16
6050000,11.481145998178429,12.499981588044049,1.0,-1.021405182655144e-13,4.214627264035146e-16
6100000,11.481041777486478,12.499981348379887,1.0,-1.021405182655144e-13,4.226671675461804e-16
6150000,11.480943937349771,12.499981103340657,1.0,-1.0236256287043943e-13,4.238764128497163e-16
6200000,11.48085217920399,12.499980852655991,1.0,-1.021405182655144e-13,4.2509048330453097e-16
6250000,11.480766218597914,12.499980596042002,1.0,-1.021405182655144e-13,4.263093843504954e-16
6300000,11.480685784533316,12.499980333200616,1.0,-1.021405182655144e-13,4.275331056757056e-16
6350000,11.480610618836097,12.499980063818864,1.0,-1.021405182655144e-13,4.2876162109290825e-16
6400000,11.480540475557156,12.499979787568137,1.0,-1.021405182655144e-13,4.2999488849730416e-16
6450000,11.480475120401628,12.499979504103418,1.0,-1.0191847366058937e-13,4.312328499099994e-16
6500000,11.48041392095378,12.49997921306246,1.0,-1.021405182655144e-13,4.3247543125747304e-16
6550000,11.480355186027962,12.499978914064934,1.0,-1.021405182655144e-13,4.337225325627972e-16
6600000,11.48029885370129,12.499978606711531,1.0,-1.021405182655144e-13,4.3497401386271414e-16
6650000,11.480244858189245,12.499978290583021,1.0,-1.021405182655144e-13,4.3622975672822186e-16
6700000,11.480193131029727,12.499977965239268,1.0,-1.0236256287043943e-13,4.374896271883016e-16
6750000,11.480143602047942,12.499977630218192,1.0,-1.021405182655144e-13,4.387534763045346e-16
6800000,11.480096200142468,12.49997728503469,1.0,-1.021405182655144e-13,4.400211407767809e-16
6850000,11.48005085392485,12.499976929179494,1.0,-1.021405182655144e-13,4.412924435851819e-16
6900000,11.480007492238773,12.499976562117979,1.0,-1.021405182655144e-13,4.42567194669809e-16
6950000,11.47996604457995,12.499976183288913,1.0,-1.021405182655144e-13,4.4384519164708175e-16
7000000,11.479926441433907,12.499975792103145,1.0,-1.021405182655144e-13,4.451262205602563e-16
7050000,11.479888614545782,12.499975387942232,1.0,-1.021405182655144e-13,4.464100566601016e-16
7100000,11.479852497133685,12.499974970157,1.0,-1.021405182655144e-13,4.476964652110382e-16
7150000,11.479818024055172,12.499974538066029,1.0,-1.021405182655144e-13,4.489852023175612e-16
7200000,11.479785131934765,12.499974090954078,1.0,-1.021405182655144e-13,4.502760157654366e-16
7250000,11.479753759259069,12.499973628070423,1.0,-1.0191847366058937e-13,4.515686458719234e-16
7300000,11.479723846444971,12.499973148627118,1.0,-1.021405182655144e-13,4.528628263393074e-16
7350000,11.479695335885511,12.499972651797183,1.0,-1.021405182655144e-13,4.541582851061879e-16
7400000,11.479668171977243,12.499972136712687,1.0,-1.0191847366058937e-13,4.554547451910788e-16
7450000,11.47964230113233,12.49997160246276,1.0,-1.021405182655144e-13,4.567519255231279e-16
7500000,11.479617671778058,12.499971048091496,1.0,-1.021405182655144e-13,4.580495417553473e-16
7550000,11.47959423434608,12.499970472595766,1.0,-1.021405182655144e-13,4.593473070556741e-16
7600000,11.47957194125329,12.499969874922925,1.0,-1.021405182655144e-13,4.606449328721142e-16
7650000,11.479550746875976,12.499969253968409,1.0,-1.0191847366058937e-13,4.619421296682925e-16
7700000,11.479530607518615,12.499968608573221,1.0,-1.021405182655144e-13,4.632386076264743e-16
7750000,11.479511481378482,12.499967937521307,1.0,-1.0191847366058937e-13,4.645340773153272e-16
7800000,11.479493328507054,12.499967239536794,1.0,-1.0191847366058937e-13,4.658282503204274e-16
7850000,11.479476110769037,12.499966513281116,1.0,-1.0191847366058937e-13,4.67120839835799e-16
7900000,11.479459791799725,12.499965757350003,1.0,-1.021405182655144e-13,4.684115612153296e-16
7950000,11.479444336961295,12.499964970270323,1.0,-1.021405182655144e-13,4.697001324832719e-16
8000000,11.479429713298519,12.499964150496794,1.0,-1.021405182655144e-13,4.7098627480341e-16
8050000,11.479415889494327,12.499963296408533,1.0,-1.021405182655144e-13,4.722697129070098e-16
8100000,11.479402835825582,12.499962406305459,1.0,-1.021405182655144e-13,4.735501754797297e-16
8150000,11.479390524119351,12.499961478404527,1.0,-1.021405182655144e-13,4.748273955083139e-16
8200000,11.479378927709925,12.4999605108358,1.0,-1.021405182655144e-13,4.761011105878604e-16
8250000,11.479368021396798,12.499959501638335,1.0,-1.0191847366058937e-13,4.77371063190931e-16
8300000,11.479357781403765,12.499958448755901,1.0,-1.0191847366058937e-13,4.78637000899695e-16
8350000,11.479348185339287,12.4999573500325,1.0,-1.021405182655144e-13,4.798986766028659e-16
8400000,11.479339212158227,12.49995620320769,1.0,-1.021405182655144e-13,4.811558486590012e-16
8450000,11.479330842125053,12.499955005911717,1.0,-1.021405182655144e-13,4.824082810278845e-16
8500000,11.479323056778577,12.499953755660428,1.0,-1.0191847366058937e-13,4.836557433719687e-16
8550000,11.479315838898275,12.499952449849964,1.0,-1.0191847366058937e-13,4.84898011129803e-16
8600000,11.479309172472243,12.499951085751244,1.0,-1.0191847366058937e-13,4.861348655633597e-16
8650000,11.479303042666805,12.499949660504202,1.0,-1.021405182655144e-13,4.873660937811913e-16
8700000,11.47929743579778,12.499948171111795,1.0,-1.0191847366058937e-13,4.885914887395768e-16
8750000,11.479292339303452,12.499946614433764,1.0,-1.0191847366058937e-13,4.898108492233757e-16
8800000,11.47928774171919,12.49994498718014,1.0,-1.021405182655144e-13,4.910239798086311e-16
8850000,11.479283632653766,12.499943285904491,1.0,-1.0191847366058937e-13,4.922306908087731e-16
8900000,11.479280002767311,12.499941506996908,1.0,-1.0191847366058937e-13,4.934307982062301e-16
8950000,11.47927684375092,12.49993964667671,1.0,-1.0169642905566434e-13,4.946241235711286e-16
9000000,11.479274148307882,12.499937700984873,1.0,-1.021405182655144e-13,4.958104939688407e-16
9050000,11.479271910136484,12.499935665776182,1.0,-1.0191847366058937e-13,4.96989741857887e-16
9100000,11.479270123914397,12.499933536711074,1.0,-1.0191847366058937e-13,4.981617049798527e-16
9150000,11.479268785284571,12.499931309247208,1.0,-1.0191847366058937e-13,4.993262262425328e-16
9200000,11.479267890842637,12.499928978630715,1.0,-1.0191847366058937e-13,5.004831535978439e-16
9250000,11.479267438125742,12.49992653988716,1.0,-1.0169642905566434e-13,5.016323399157368e-16
9300000,11.479267425602808,12.499923987812183,1.0,-1.021405182655144e-13,5.027736428552248e-16
9350000,11.479267852666139,12.499921316961847,1.0,-1.0191847366058937e-13,5.0390692473371655e-16
9400000,11.479268719624345,12.499918521642662,1.0,-1.0191847366058937e-13,5.05032052395709e-16
9450000,11.47927002769653,12.499915595901307,1.0,-1.0191847366058937e-13,5.061488970817549e-16
9500000,11.479271779007663,12.499912533514038,1.0,-1.0169642905566434e-13,5.072573342985871e-16
9550000,11.479273976585118,12.499909327975804,1.0,-1.0169642905566434e-13,5.083572313210553e-16
9600000,11.479276624312835,12.499905972489039,1.0,-1.0169642905566434e-13,5.094484840756886e-16
9650000,11.479279727014031,12.499902459952184,1.0,-1.0169642905566434e-13,5.105309801119241e-16
9700000,11.479283290409679,12.499898782947904,1.0,-1.0191847366058937e-13,5.116046107536803e-16
9750000,11.479287321118884,12.499894933731035,1.0,-1.0169642905566434e-13,5.126692709866785e-16
9800000,11.479291826660049,12.499890904216272,1.0,-1.0169642905566434e-13,5.137248593510319e-16
9850000,11.479296815452715,12.4998866859656,1.0,-1.0169642905566434e-13,5.147712778396166e-16
9900000,11.479302296820002,12.499882270175503,1.0,-1.0191847366058937e-13,5.15808431802672e-16
9950000,11.47930828099154,12.499877647663952,1.0,-1.0169642905566434e-13,5.168362298590392e-16
10000000,11.47931477910679,12.499872808857226,1.0,-1.0169642905566434e-13,5.178545838144184e-16
10050000,11.479321803218625,12.499867743776564,1.0,-1.0147438445073931e-13,5.188634085869724e-16
10100000,11.479329366297073,12.499862442024689,1.0,-1.0169642905566434e-13,5.198626221405781e-16
10150000,11.47933748223307,12.49985689277226,1.0,-1.0169642905566434e-13,5.208521454259853e-16
10200000,11.479346165842102,12.499851084744263,1.0,-1.0169642905566434e-13,5.218319023301171e-16
10250000,11.47935543286757,12.499845006206396,1.0,-1.0169642905566434e-13,5.228018196337042e-16
