Timestep (s),Sum Voltage (V),Carry Out Voltage (V),Sum Error Rate (Dimless),Carry Out Error Rate (Dimless),Energy Dissipation (J)
0,0.00018585113844837308,12.499999820454702,1.0,1.0,3.8968923618784374e-16
50000,0.00036273586723743745,12.499999640908452,1.0,1.0,3.916492274671892e-16
100000,0.000536737155362605,12.499999461361025,1.0,1.0,3.9355936790649075e-16
150000,0.0007081737914672294,12.499999281812086,1.0,1.0,3.9542291968557266e-16
200000,0.0008777330450996684,12.499999102261201,1.0,1.0,3.972428516508204e-16
250000,0.0010459956173666553,12.499998922707842,1.0,1.0,3.990218728619731e-16
300000,0.0012134565478399508,12.499998743151387,1.0,1.0,4.0076246148355497e-16
350000,0.001380541529186204,12.499998563591124,1.0,1.0,4.0246688977292947e-16
400000,0.0015476197531242818,12.499998384026247,1.0,1.0,4.041372457767271e-16
450000,0.0017150141098887038,12.499998204455864,1.0,1.0,4.057754522406902e-16
500000,0.0018830093494988374,12.499998024878993,1.0,1.0,4.0738328315054033e-16
550000,0.002051858659560118,12.49999784529456,1.0,1.0,4.089623782514011e-16
600000,0.002221789002842974,12.499997665701402,1.0,1.0,4.105142558354811e-16
650000,0.0023930054760367744,12.499997486098263,1.0,1.0,4.1204032404130536e-16
700000,0.002565694890486246,12.499997306483788,1.0,1.0,4.135418908688643e-16
750000,0.0027400287303708613,12.499997126856528,1.0,1.0,4.15020173082978e-16
800000,0.0029161656095929695,12.499996947214932,1.0,1.0,4.164763041517219e-16
850000,0.0030942533226408276,12.499996767557347,1.0,1.0,4.1791134134376255e-16
900000,0.0032744305647546103,12.49999658788201,1.0,1.0,4.193262720910738e-16
950000,0.0034568283813434086,12.499996408187046,1.0,1.0,4.2072201970781005e-16
1000000,0.0036415713946355496,12.49999622847047,1.0,1.0,4.220994485433291e-16
1050000,0.003828778846190344,12.499996048730171,1.0,1.0,4.234593686366657e-16
1100000,0.004018565486535034,12.499995868963914,1.0,1.0,4.2480253993048223e-16
1150000,0.004211042337342635,12.499995689169333,1.0,1.0,4.261296760948267e-16
1200000,0.004406317346940436,12.499995509343929,1.0,1.0,4.2744144800462307e-16
1250000,0.004604495956202738,12.499995329485055,1.0,1.0,4.2873848690878126e-16
1300000,0.004805681588897285,12.49999514958992,1.0,1.0,4.3002138732452364e-16
1350000,0.005009976078132681,12.499994969655575,1.0,1.0,4.3129070968605853e-16
1400000,0.005217480038587004,12.499994789678908,1.0,1.0,4.325469827732595e-16
1450000,0.005428293192598089,12.499994609656637,1.0,1.0,4.337907059430096e-16
1500000,0.005642514656876638,12.499994429585303,1.0,1.0,4.3502235118337043e-16
1550000,0.0058602431955323,12.499994249461258,1.0,1.0,4.3624236500831127e-16
1600000,0.006081577444197976,12.499994069280659,1.0,1.0,4.3745117020848654e-16
1650000,0.006306616109308314,12.499993889039455,1.0,1.0,4.3864916747268746e-16
1700000,0.006535458145969936,12.499993708733385,1.0,1.0,4.3983673689209675e-16
1750000,0.006768202917347457,12.499993528357958,1.0,1.0,4.410142393591439e-16
1800000,0.007004950338058551,12.499993347908449,1.0,1.0,4.421820178708409e-16
1850000,0.007245801003714067,12.499993167379882,1.0,1.0,4.4334039874613724e-16
1900000,0.007490856308431454,12.499992986767024,1.0,1.0,4.444896927657816e-16
1950000,0.007740218551895158,12.499992806064366,1.0,1.0,4.456301962426483e-16
2000000,0.00799399103731972,12.499992625266113,1.0,1.0,4.467621920295657e-16
2050000,0.008252278161485629,12.499992444366173,1.0,1.0,4.478859504718204e-16
2100000,0.008515185497861564,12.499992263358134,1.0,1.0,4.490017303106963e-16
2150000,0.008782819873691108,12.499992082235256,1.0,1.0,4.501097795447484e-16
2200000,0.009055289441809096,12.49999190099045,1.0,1.0,4.512103362547179e-16
2250000,0.009332703747851282,12.499991719616263,1.0,1.0,4.523036293989951e-16
2300000,0.009615173793438328,12.499991538104862,1.0,1.0,4.533898795858902e-16
2350000,0.009902812095840152,12.499991356448009,1.0,1.0,4.544692998305777e-16
2400000,0.01019573274456594,12.499991174637048,1.0,1.0,4.55542096304126e-16
2450000,0.010494051455267363,12.499990992662878,1.0,1.0,4.566084690842517e-16
2500000,0.010797885621297588,12.499990810515937,1.0,1.0,4.576686129184868e-16
2550000,0.011107354363227361,12.499990628186174,1.0,1.0,4.58722718013087e-16
2600000,0.011422578576578737,12.499990445663023,1.0,1.0,4.597709708640395e-16
2650000,0.01174368097801638,12.499990262935388,1.0,1.0,4.60813555151176e-16
2700000,0.01207078615019513,12.499990079991605,1.0,1.0,4.61850652723152e-16
2750000,0.012404020585451855,12.499989896819418,1.0,1.0,4.628824447096527e-16
2800000,0.012743512728496923,12.499989713405952,1.0,1.0,4.639091128111979e-16
2850000,0.013089393018252635,12.49998952973768,1.0,1.0,4.649308408359508e-16
2900000,0.013441793928960354,12.499989345800389,1.0,1.0,4.659478165825266e-16
2950000,0.01380085001067101,12.499989161579146,1.0,1.0,4.669602342122164e-16
3000000,0.014166697929216536,12.499988977058267,1.0,1.0,4.679682973237029e-16
3050000,0.014539476505749702,12.499988792221272,1.0,1.0,4.689722230550987e-16
3100000,0.014919326755930922,12.499988607050852,1.0,1.0,4.699722477222866e-16
3150000,0.015306391928830827,12.499988421528823,1.0,1.0,4.709686348175921e-16
3200000,0.015700817545607697,12.499988235636083,1.0,1.0,4.71959604014525e-16
3250000,0.016102751438017288,12.499988049352568,1.0,1.0,4.72945342257924e-16
3300000,0.01651234378679762,12.499987862657205,1.0,1.0,4.739260798331816e-16
3350000,0.01692974715997568,12.499987675527857,1.0,1.0,4.749020234331746e-16
3400000,0.017355116551128556,12.49998748794127,1.0,1.0,4.758733618633568e-16
3450000,0.01778860941763454,12.499987299873025,1.0,1.0,4.768402701413805e-16
3500000,0.018230385718939767,12.499987111297472,1.0,1.0,4.778029125165218e-16
3550000,0.018680607954866202,12.499986922187668,1.0,1.0,4.787614447434374e-16
3600000,0.0191394412039804,12.49998673251532,1.0,1.0,4.797160158282322e-16
3650000,0.01960705316204338,12.499986542250706,1.0,1.0,4.806667693935726e-16
3700000,0.020083614180553107,12.499986351362617,1.0,1.0,4.816138447628682e-16
3750000,0.020569297305394817,12.499986159818269,1.0,1.0,4.825573778333669e-16
3800000,0.021064278315607393,12.499985967583234,1.0,1.0,4.834975017879853e-16
3850000,0.02156873576227449,12.499985774621354,1.0,1.0,4.844343476813461e-16
3900000,0.02208285100754567,12.499985580894656,1.0,1.0,4.853680449264298e-16
3950000,0.022606808263790818,12.499985386363255,1.0,1.0,4.862987217006701e-16
4000000,0.023140794632890795,12.499985190985269,1.0,1.0,4.872265052863764e-16
4050000,0.023685000145663767,12.49998499471671,1.0,1.0,4.881515223555862e-16
4100000,0.024239617801426555,12.499984797511383,1.0,1.0,4.890738992080634e-16
4150000,0.024804843607687598,12.499984599320772,1.0,1.0,4.899937619683308e-16
4200000,0.025380876619967845,12.499984400093929,1.0,1.0,4.909112367463738e-16
4250000,0.025967918981743048,12.499984199777346,1.0,1.0,4.9182644976564e-16
4300000,0.026566175964501993,12.499983998314834,1.0,1.0,4.927395274610711e-16
4350000,0.027175856007911472,12.499983795647381,1.0,1.0,4.936505965490405e-16
4400000,0.02779717076007846,12.499983591713017,1.0,1.0,4.945597840708416e-16
4450000,0.028430335117899223,12.499983386446662,1.0,1.0,4.954672174107357e-16
4500000,0.02907556726748443,12.49998317977997,1.0,1.0,4.963730242894039e-16
4550000,0.02973308872464545,12.499982971641174,1.0,1.0,4.972773327334875e-16
4600000,0.030403124375430208,12.499982761954897,1.0,1.0,4.981802710215346e-16
4650000,0.031085902516690172,12.49998255064199,1.0,1.0,4.990819676066626e-16
4700000,0.03178165489666627,12.49998233761933,1.0,1.0,4.999825510163419e-16
4750000,0.03249061675557308,12.499982122799631,1.0,1.0,5.008821497294653e-16
4800000,0.03321302686616483,12.499981906091227,1.0,1.0,5.01780892030906e-16
4850000,0.0339491275742623,12.499981687397856,1.0,1.0,5.026789058439527e-16
4900000,0.03469916483922211,12.499981466618431,1.0,1.0,5.03576318540991e-16
4950000,0.035463388274323285,12.499981243646799,1.0,1.0,5.04473256732864e-16
5000000,0.03624205118705277,12.499981018371482,1.0,1.0,5.053698460375148e-16
5050000,0.03703541061926163,12.499980790675417,1.0,1.0,5.062662108287498e-16
5100000,0.037843727387170914,12.499980560435674,1.0,1.0,5.071624739658727e-16
5150000,0.03866726612119722,12.499980327523158,1.0,1.0,5.080587565054713e-16
5200000,0.039506295305575236,12.499980091802309,1.0,1.0,5.089551773965107e-16
5250000,0.04036108731774357,12.49997985313077,1.0,1.0,5.098518531602295e-16
5300000,0.041231918467469555,12.49997961135905,1.0,1.0,5.107488975565828e-16
5350000,0.042119069035678816,12.499979366330171,1.0,1.0,5.116464212392758e-16
5400000,0.04302282331295895,12.499979117879288,1.0,1.0,5.12544531401273e-16
5450000,0.04394346963770433,12.499978865833294,1.0,1.0,5.134433314133679e-16
5500000,0.04488130043386772,12.49997861001041,1.0,1.0,5.143429204582601e-16
5550000,0.04583661224828231,12.499978350219756,1.0,1.0,5.152433931628926e-16
5600000,0.04680970578751832,12.499978086260882,1.0,1.0,5.161448392320257e-16
5650000,0.04780088595423536,12.499977817923302,1.0,1.0,5.170473430860978e-16
5700000,0.04881046188299061,12.499977544985988,1.0,1.0,5.179509835064226e-16
5750000,0.04983874697546276,12.49997726721684,1.0,1.0,5.188558332912425e-16
5800000,0.05088605893504866,12.499976984372138,1.0,1.0,5.197619589257996e-16
5850000,0.051952719800788784,12.499976696195954,1.0,1.0,5.206694202697665e-16
5900000,0.05303905598057554,12.49997640241955,1.0,1.0,5.21578270265275e-16
5950000,0.05414539828359749,12.499976102760733,1.0,1.0,5.224885546690553e-16
6000000,0.055272081951971405,12.499975796923183,1.0,1.0,5.234003118113836e-16
6050000,0.056419446691509306,12.49997548459575,1.0,1.0,5.243135723851479e-16
6100000,0.05758783670156832,12.49997516545171,1.0,1.0,5.252283592674556e-16
6150000,0.05877760070392889,12.499974839147995,1.0,1.0,5.261446873764758e-16
6200000,0.05998909197064297,12.499974505324372,1.0,1.0,5.270625635656028e-16
6250000,0.061222668350791605,12.499974163602587,1.0,1.0,5.279819865568294e-16
6300000,0.06247869229608739,12.49997381358547,1.0,1.0,5.289029469147526e-16
6350000,0.06375753088525826,12.49997345485599,1.0,1.0,5.298254270625745e-16
6400000,0.0650595558471371,12.49997308697627,1.0,1.0,5.30749401340467e-16
6450000,0.06638514358238419,12.499972709486547,1.0,1.0,5.316748361070717e-16
6500000,0.06773467518375967,12.499972321904082,1.0,1.0,5.326016894869379e-16
6550000,0.06910853644248016,12.499971923722022,1.0,1.0,5.335299108597077e-16
6600000,0.07050711781919405,12.499971514408198,1.0,1.0,5.344594435405266e-16
6650000,0.07193081446043091,12.499971093403873,1.0,1.0,5.353902236991698e-16
6700000,0.073380026212957,12.49997066012242,1.0,1.0,5.363221806677313e-16
6750000,0.07485515763592812,12.49997021394794,1.0,1.0,5.372552372856511e-16
6800000,0.07635661801071203,12.499969754233813,1.0,1.0,5.381893102804144e-16
6850000,0.07788482134822579,12.49996928030118,1.0,1.0,5.391243106820308e-16
6900000,0.07944018639359815,12.49996879143734,1.0,1.0,5.400601442691223e-16
6950000,0.08102313662792797,12.499968286894083,1.0,1.0,5.40996712044755e-16
7000000,0.08263410026685714,12.499967765885938,1.0,1.0,5.419339107402345e-16
7050000,0.08427351025561054,12.499967227588328,1.0,1.0,5.428716333451394e-16
7100000,0.08594180426006887,12.49996667113565,1.0,1.0,5.438097696625662e-16
7150000,0.08763942465332741,12.49996609561925,1.0,1.0,5.447482068887314e-16
7200000,0.0893668184970449,12.499965500085299,1.0,1.0,5.45686830217009e-16
7250000,0.09112443751668742,12.499964883532584,1.0,1.0,5.466255234671619e-16
7300000,0.09291273806950036,12.49996424491017,1.0,1.0,5.475641697416672e-16
7350000,0.0947321811036794,12.49996358311497,1.0,1.0,5.485026521125248e-16
7400000,0.09658319204236555,12.49996289698918,1.0,1.0,5.494402809147581e-16
7450000,0.09846622645092806,12.499962185317607,1.0,1.0,5.503767118470834e-16
7500000,0.10038176057464596,12.499961446824859,1.0,1.0,5.513118237768664e-16
7550000,0.10233027523356697,12.499960680172409,1.0,1.0,5.522454930366691e-16
7600000,0.10431225578890674,12.499959883955512,1.0,1.0,5.531775940345514e-16
7650000,0.10632819210922995,12.499959056699984,1.0,1.0,5.541079998109518e-16
7700000,0.10837857853546673,12.49995819685882,1.0,1.0,5.550365825468521e-16
7750000,0.11046391384407138,12.49995730280866,1.0,1.0,5.559632140270774e-16
7800000,0.11258470120781892,12.499956372846084,1.0,1.0,5.568877660618546e-16
7850000,0.1147414481538533,12.499955405183735,1.0,1.0,5.578101108693754e-16
7900000,0.1169346665186979,12.499954397946267,1.0,1.0,5.587301214218533e-16
7950000,0.11916487239999825,12.499953349166091,1.0,1.0,5.59647671757148e-16
8000000,0.12143258610481768,12.499952256778936,1.0,1.0,5.605626372579233e-16
8050000,0.12373833209433516,12.4999511186192,1.0,1.0,5.614748949003011e-16
8100000,0.12608263892482488,12.499949932415085,1.0,1.0,5.623843234737368e-16
8150000,0.12846603918481025,12.499948695783516,1.0,1.0,5.632908037737317e-16
8200000,0.13088906942830272,12.499947406224821,1.0,1.0,5.641942187691614e-16
8250000,0.13335227010404127,12.499946061117175,1.0,1.0,5.650944537457774e-16
8300000,0.13585618548066336,12.499944657710786,1.0,1.0,5.65991396427415e-16
8350000,0.13840136356773758,12.499943193121831,1.0,1.0,5.668849370764855e-16
8400000,0.14098835603259743,12.49994166432611,1.0,1.0,5.677749685752811e-16
8450000,0.14361771811292007,12.499940068152428,1.0,1.0,5.686613864894127e-16
8500000,0.14629000852499496,12.499938401275676,1.0,1.0,5.695440891150082e-16
8550000,0.1490057893676357,12.499936660209615,1.0,1.0,5.704229775108241e-16
8600000,0.15176562602168692,12.499934841299346,1.0,1.0,5.712979555168146e-16
8650000,0.15457008704508393,12.499932940713453,1.0,1.0,5.721689297602774e-16
8700000,0.15741974406342693,12.49993095443581,1.0,1.0,5.73035809650891e-16
8750000,0.16031517165603296,12.49992887825704,1.0,1.0,5.738985073658577e-16
8800000,0.1632569472374352,12.499926707765615,1.0,1.0,5.747569378260994e-16
8850000,0.16624565093429786,12.499924438338592,1.0,1.0,5.756110186648253e-16
8900000,0.1692818654577249,12.499922065131956,1.0,1.0,5.764606701893502e-16
8950000,0.17236617597094225,12.499919583070573,1.0,1.0,5.773058153370112e-16
9000000,0.17549916995233528,12.499916986837746,1.0,1.0,5.781463796263911e-16
9050000,0.1786814370538307,12.499914270864346,1.0,1.0,5.789822911043792e-16
9100000,0.18191356895461688,12.49991142931752,1.0,1.0,5.798134802900377e-16
9150000,0.1851961592101987,12.49990845608896,1.0,1.0,5.806398801160171e-16
9200000,0.18852980309679065,12.499905344782738,1.0,1.0,5.81461425868132e-16
9250000,0.19191509745105775,12.499902088702658,1.0,1.0,5.822780551238459e-16
9300000,0.19535264050521603,12.499898680839175,1.0,1.0,5.830897076901333e-16
9350000,0.19884303171751258,12.499895113855812,1.0,1.0,5.838963255413904e-16
9400000,0.20238687159811317,12.49989138007512,1.0,1.0,5.846978527579084e-16
9450000,0.20598476153042589,12.499887471464133,1.0,1.0,5.854942354652986e-16
9500000,0.20963730358790109,12.499883379619348,1.0,1.0,5.862854217753387e-16
9550000,0.21334510034635235,12.499879095751194,1.0,1.0,5.870713617287009e-16
9600000,0.2171087546918478,12.499874610668016,1.0,1.0,5.878520072399159e-16
9650000,0.22092886962423458,12.49986991475956,1.0,1.0,5.886273120448571e-16
9700000,0.22480604805635632,12.499864997979955,1.0,1.0,5.893972316511343e-16
9750000,0.22874089260904035,12.499859849830205,1.0,1.0,5.901617232915793e-16
9800000,0.2327340054019347,12.499854459340202,1.0,1.0,5.909207458812758e-16
9850000,0.23678598784027904,12.499848815050257,1.0,1.0,5.916742599781418e-16
9900000,0.24089744039770922,12.499842904992153,1.0,1.0,5.924222277474505e-16
9950000,0.24506896239519468,12.499836716669764,1.0,1.0,5.931646129304774e-16
10000000,0.249301151776222,12.499830237039228,1.0,1.0,5.939013808173039e-16
10050000,0.2535946048783414,12.49982345248871,1.0,1.0,5.946324982241433e-16
10100000,0.2579499162012039,12.49981634881778,1.0,1.0,5.953579334751072e-16
10150000,0.2623676781712233,12.49980891121642,1.0,1.0,5.96077656388752e-16
10200000,0.2668484809030054,12.49980112424373,1.0,1.0,5.967916382693528e-16
10250000,0.2713929119576942,12.499792971806325,1.0,1.0,5.974998519030042e-16
10300000,0.27600155609839544,12.499784437136507,1.0,1.0,5.982022715586725e-16
10350000,0.2806749950428415,12.499775502770232,1.0,1.0,5.988988729941762e-16
10400000,0.2854138072134743,12.499766150524954,1.0,1.0,5.995896334671835e-16
10450000,0.2902185674851252,12.499756361477381,1.0,1.0,6.002745317510555e-16
10500000,0.2950898469304843,12.49974611594123,1.0,1.0,6.009535481557597e-16
10550000,0.3000282125635557,12.49973539344504,1.0,1.0,6.016266645535469e-16
10600000,0.3050342270813016,12.49972417271014,1.0,1.0,6.022938644095133e-16
10650000,0.3101084486036886,12.49971243162884,1.0,1.0,6.02955132816726e-16
10700000,0.3152514304123553,12.499700147242951,1.0,1.0,6.03610456536027e-16
10750000,0.3204637206881248,12.499687295722735,1.0,1.0,6.042598240400407e-16
10800000,0.3257458622475957,12.499673852346383,1.0,1.0,6.049032255614469e-16
10850000,0.3310983922790496,12.499659791480152,1.0,1.0,6.055406531450639e-16
10900000,0.33652184207791813,12.499645086559259,1.0,1.0,6.061721007036014e-16
10950000,0.34201673678206107,12.499629710069685,1.0,1.0,6.067975640766598e-16
11000000,0.34758359510710907,12.499613633531007,1.0,1.0,6.074170410926565e-16
11050000,0.35322292908213104,12.499596827480396,1.0,1.0,6.08030531633302e-16
11100000,0.35893524378589037,12.499579261457932,1.0,1.0,6.086380376999863e-16
11150000,0.3647210370839595,12.499560903993387,1.0,1.0,6.092395634819382e-16
11200000,0.37058079936696225,12.499541722594623,1.0,1.0,6.098351154252332e-16
11250000,0.3765150132902212,12.499521683737749,1.0,1.0,6.104247023023425e-16
11300000,0.3825241535150865,12.499500752859221,1.0,1.0,6.110083352814753e-16
11350000,0.38860868645222485,12.499478894350018,1.0,1.0,6.115860279951792e-16
11400000,0.39476907000715256,12.499456071552048,1.0,1.0,6.121577966072395e-16
11450000,0.4010057533282911,12.499432246756967,1.0,1.0,6.127236598776171e-16
11500000,0.4073191765578315,12.499407381207515,1.0,1.0,6.132836392242403e-16
11550000,0.4137097705856872,12.49938143510155,1.0,1.0,6.138377587811055e-16
11600000,0.4201779568068192,12.499354367598905,1.0,1.0,6.143860454518792e-16
11650000,0.42672414688221305,12.499326136831174,1.0,1.0,6.149285289582817e-16
11700000,0.43334874250378597,12.49929669991458,1.0,1.0,6.1546524188231e-16
11750000,0.4400521351635037,12.49926601296599,1.0,1.0,6.159962197017176e-16
11800000,0.4468347059269737,12.499234031122185,1.0,1.0,6.16521500817974e-16
11850000,0.45369682521179255,12.499200708562459,1.0,1.0,6.170411265758004e-16
11900000,0.4606388525709064,12.499165998534567,1.0,1.0,6.175551412739103e-16
11950000,0.4676611364812492,12.499129853384098,1.0,1.0,6.180635921661573e-16
12000000,0.4747640141379113,12.499092224587239,1.0,1.0,6.185665294526014e-16
12050000,0.48194781125409153,12.499053062786944,1.0,1.0,6.190640062599492e-16
12100000,0.4892128418670713,12.499012317832449,1.0,1.0,6.195560786110478e-16
12150000,0.49655940815045235,12.498969938822079,1.0,1.0,6.200428053831973e-16
12200000,0.5039878002328817,12.49892587414925,1.0,1.0,6.20524248254888e-16
12250000,0.5114982960234904,12.49888007155155,1.0,1.0,6.210004716411484e-16
12300000,0.5190911610442546,12.498832478162745,1.0,1.0,6.214715426172257e-16
12350000,0.5267666482694856,12.498783040567554,1.0,1.0,6.219375308311053e-16
12400000,0.5345249979726436,12.498731704858976,1.0,1.0,6.22398508404805e-16
12450000,0.5423664375806625,12.498678416697965,1.0,1.0,6.228545498251195e-16
12500000,0.5502911815359587,12.498623121375196,1.0,1.0,6.2330573182414445e-16
12550000,0.5582994311662938,12.49856576387466,1.0,1.0,6.237521332504204e-16
12600000,0.5663913745626469,12.498506288938799,1.0,1.0,6.241938349312409e-16
12650000,0.57456718646524,12.49844464113488,1.0,1.0,6.246309195271535e-16
