Timestep (s),Sum Voltage (V),Carry Out Voltage (V),Sum Error Rate (Dimless),Carry Out Error Rate (Dimless),Energy Dissipation (J)
0,0.00018585113844837308,12.499999820455539,-1.0080825063596421e-13,-1.0236256287043943e-13,1.2884423660306352e-20
50000,0.00036273584969483526,12.499999640911879,-1.0014211682118912e-13,-1.021405182655144e-13,2.576709729229827e-20
100000,0.0005310883673175929,12.499999461369784,-9.9253938401489e-14,-1.0236256287043943e-13,3.8648127547286784e-20
150000,0.0006913217556585031,12.49999928182998,-9.880984919163893e-14,-1.0236256287043943e-13,5.1527604674159705e-20
200000,0.0008438289511999628,12.499999102293158,-9.814371537686384e-14,-1.021405182655144e-13,6.44056133431271e-20
250000,0.0009889837416547458,12.499998922759975,-9.725553695716371e-14,-1.021405182655144e-13,7.728223343168319e-20
300000,0.0011271417475749099,12.499998743231057,-9.703349235223868e-14,-1.021405182655144e-13,9.015753997993832e-20
350000,0.0012586412653624892,12.499998563707,-9.636735853746359e-14,-1.0236256287043943e-13,1.0303160369220497e-19
400000,0.0013838041625032211,12.499998384188373,-9.614531393253856e-14,-1.0236256287043943e-13,1.1590449106570128e-19
450000,0.0015029366586389995,12.499998204675716,-9.547918011776346e-14,-1.021405182655144e-13,1.287762650763324e-19
500000,0.0016163301075130215,12.49999802516954,-9.525713551283843e-14,-1.0236256287043943e-13,1.4164698466718436e-19
550000,0.0017242617244553366,12.499997845670338,-9.459100169806334e-14,-1.0236256287043943e-13,1.5451670570360878e-19
600000,0.0018269952594175327,12.499997666178574,-9.43689570931383e-14,-1.021405182655144e-13,1.6738548098088696e-19
650000,0.0019247817006939729,12.499997486694692,-9.392486788328824e-14,-1.0236256287043943e-13,1.802533599942597e-19
700000,0.002017859842406781,12.499997307219113,-9.348077867343818e-14,-1.0236256287043943e-13,1.9312038984320788e-19
750000,0.0021064569106688685,12.49999712775224,-9.348077867343818e-14,-1.021405182655144e-13,2.0598661468020097e-19
800000,0.002190789137351706,12.499996948294454,-9.281464485866309e-14,-1.021405182655144e-13,2.1885207643293916e-19
850000,0.0022710622776599314,12.499996768846119,-9.259260025373806e-14,-1.021405182655144e-13,2.3171681467453646e-19
900000,0.0023474721130166873,12.499996589407582,-9.237055564881302e-14,-1.0236256287043943e-13,2.4458086678239115e-19
950000,0.0024202049823052055,12.499996409979172,-9.192646643896296e-14,-1.0236256287043943e-13,2.574442681398914e-19
1000000,0.002489438191679715,12.499996230561203,-9.192646643896296e-14,-1.021405182655144e-13,2.7030705211039304e-19
1050000,0.00255534047624373,12.499996051153975,-9.170442183403793e-14,-1.021405182655144e-13,2.831692505180838e-19
1100000,0.002618072408341006,12.49999587175777,-9.126033262418787e-14,-1.021405182655144e-13,2.96030893187016e-19
1150000,0.00267778680148309,12.49999569237286,-9.126033262418787e-14,-1.021405182655144e-13,3.0889200852241666e-19
1200000,0.0027346290904909274,12.4999955129995,-9.08162434143378e-14,-1.021405182655144e-13,3.217526234908216e-19
1250000,0.0027887376816772102,12.499995333637939,-9.059419880941277e-14,-1.021405182655144e-13,3.3461276333352007e-19
1300000,0.002840244297426409,12.499995154288408,-9.037215420448774e-14,-1.021405182655144e-13,3.474724521994786e-19
1350000,0.00288927429582131,12.499994974951129,-9.015010959956271e-14,-1.021405182655144e-13,3.6033171289125196e-19
1400000,0.0029359469835334535,12.499994795626312,-9.015010959956271e-14,-1.021405182655144e-13,3.731905671493575e-19
1450000,0.002980375916125136,12.499994616314162,-8.992806499463768e-14,-1.021405182655144e-13,3.860490353863595e-19
1500000,0.003022669158471221,12.499994437014866,-8.970602038971265e-14,-1.0236256287043943e-13,3.989071370670661e-19
1550000,0.0030629295767352622,12.499994257728607,-8.970602038971265e-14,-1.021405182655144e-13,4.11764890598675e-19
1600000,0.003101255046279907,12.49999407845556,-8.948397578478762e-14,-1.021405182655144e-13,4.246223134257293e-19
1650000,0.0031377387531571687,12.499993899195887,-8.948397578478762e-14,-1.0191847366058937e-13,4.374794222225811e-19
1700000,0.0031724693838449487,12.499993719949748,-8.926193117986259e-14,-1.021405182655144e-13,4.503362327128469e-19
1750000,0.0032055313226250996,12.49999354071729,-8.903988657493755e-14,-1.021405182655144e-13,4.631927597502429e-19
1800000,0.0032370049160982354,12.499993361498655,-8.926193117986259e-14,-1.0236256287043943e-13,4.760490176170833e-19
1850000,0.003266966619773195,12.499993182293979,-8.903988657493755e-14,-1.0236256287043943e-13,4.889050196157309e-19
1900000,0.003295489212459387,12.499993003103391,-8.881784197001252e-14,-1.021405182655144e-13,5.017607785957286e-19
1950000,0.0033226419598492724,12.499992823927013,-8.859579736508749e-14,-1.021405182655144e-13,5.146163066718515e-19
2000000,0.00334849080254121,12.49999264476496,-8.859579736508749e-14,-1.021405182655144e-13,5.274716153680627e-19
2050000,0.0033730984837000585,12.499992465617344,-8.859579736508749e-14,-1.021405182655144e-13,5.403267155049815e-19
2100000,0.003396524735577957,12.499992286484272,-8.837375276016246e-14,-1.0236256287043943e-13,5.531816175426735e-19
2150000,0.00341882641553563,12.49999210736584,-8.837375276016246e-14,-1.021405182655144e-13,5.660363312679413e-19
2200000,0.003440057635512373,12.499991928262146,-8.837375276016246e-14,-1.0236256287043943e-13,5.788908661559034e-19
2250000,0.0034602699012666544,12.499991749173281,-8.815170815523743e-14,-1.021405182655144e-13,5.91745231094411e-19
2300000,0.003479512256708099,12.499991570099331,-8.815170815523743e-14,-1.0236256287043943e-13,6.045994344395079e-19
2350000,0.0034978313510215294,12.499991391040377,-8.815170815523743e-14,-1.021405182655144e-13,6.174534842622246e-19
2400000,0.0035152716177084273,12.499991211996496,-8.815170815523743e-14,-1.021405182655144e-13,6.303073880857627e-19
2450000,0.003531875326413475,12.499991032967765,-8.79296635503124e-14,-1.021405182655144e-13,6.431611532930703e-19
2500000,0.0035476827246884368,12.499990853954253,-8.79296635503124e-14,-1.021405182655144e-13,6.560147867506966e-19
2550000,0.0035627321308446683,12.499990674956027,-8.79296635503124e-14,-1.021405182655144e-13,6.688682949064538e-19
2600000,0.0035770600011735846,12.499990495973153,-8.770761894538737e-14,-1.021405182655144e-13,6.817216841205671e-19
2650000,0.0035907010539530833,12.499990317005688,-8.770761894538737e-14,-1.0236256287043943e-13,6.945749602653496e-19
2700000,0.0036036883084564425,12.499990138053692,-8.770761894538737e-14,-1.0236256287043943e-13,7.0742812899326285e-19
2750000,0.0036160532272203555,12.499989959117219,-8.748557434046234e-14,-1.021405182655144e-13,7.202811956233744e-19
2800000,0.0036278257402845506,12.499989780196323,-8.770761894538737e-14,-1.0236256287043943e-13,7.331341652447056e-19
2850000,0.003639034346040174,12.499989601291052,-8.748557434046234e-14,-1.021405182655144e-13,7.459870426232424e-19
2900000,0.003649706162213196,12.499989422401452,-8.72635297355373e-14,-1.021405182655144e-13,7.588398325069503e-19
2950000,0.0036598670080473694,12.499989243527569,-8.748557434046234e-14,-1.021405182655144e-13,7.716925391547713e-19
3000000,0.003669541461094843,12.499989064669446,-8.748557434046234e-14,-1.0236256287043943e-13,7.845451667746332e-19
3050000,0.003678752914746614,12.499988885827124,-8.72635297355373e-14,-1.0236256287043943e-13,7.973977193035355e-19
3100000,0.0036875236344357755,12.49998870700064,-8.72635297355373e-14,-1.021405182655144e-13,8.102502005137376e-19
3150000,0.0036958748181491036,12.49998852819003,-8.72635297355373e-14,-1.0236256287043943e-13,8.231026139354708e-19
3200000,0.003703826640845611,12.49998834939533,-8.72635297355373e-14,-1.021405182655144e-13,8.359549629597856e-19
3250000,0.0037113983094552764,12.499988170616573,-8.704148513061227e-14,-1.021405182655144e-13,8.488072509687759e-19
3300000,0.0037186081112722353,12.499987991853791,-8.72635297355373e-14,-1.021405182655144e-13,8.616594808733137e-19
3350000,0.0037254734391973013,12.499987813107012,-8.72635297355373e-14,-1.021405182655144e-13,8.745116556394956e-19
3400000,0.0037320108622045335,12.499987634376264,-8.72635297355373e-14,-1.021405182655144e-13,8.873637780971036e-19
3450000,0.0037382361509676674,12.499987455661575,-8.72635297355373e-14,-1.021405182655144e-13,9.002158509050215e-19
3500000,0.003744164313090876,12.49998727696297,-8.704148513061227e-14,-1.021405182655144e-13,9.130678764996867e-19
3550000,0.003749809642189107,12.499987098280474,-8.704148513061227e-14,-1.021405182655144e-13,9.259198572477796e-19
3600000,0.0037551857277031194,12.49998691961411,-8.72635297355373e-14,-1.021405182655144e-13,9.387717956376401e-19
3650000,0.0037603055185558465,12.499986740963896,-8.704148513061227e-14,-1.021405182655144e-13,9.516236936479038e-19
3700000,0.003765181341638982,12.499986562329857,-8.72635297355373e-14,-1.021405182655144e-13,9.644755534686056e-19
3750000,0.003769824929959227,12.49998638371201,-8.704148513061227e-14,-1.021405182655144e-13,9.773273770080985e-19
3800000,0.0037742474487305767,12.499986205110373,-8.704148513061227e-14,-1.021405182655144e-13,9.901791661160476e-19
3850000,0.003778459533285125,12.499986026524967,-8.704148513061227e-14,-1.0236256287043943e-13,1.003030922601424e-18
3900000,0.0037824712929289514,12.499985847955806,-8.704148513061227e-14,-1.021405182655144e-13,1.0158826482211615e-18
3950000,0.003786292363542875,12.499985669402905,-8.704148513061227e-14,-1.021405182655144e-13,1.0287343444893165e-18
4000000,0.003789931912022134,12.499985490866282,-8.704148513061227e-14,-1.021405182655144e-13,1.0415860129846707e-18
4050000,0.0037933986620760822,12.499985312345949,-8.681944052568724e-14,-1.021405182655144e-13,1.0544376551801784e-18
4100000,0.003796700943798185,12.49998513384192,-8.681944052568724e-14,-1.021405182655144e-13,1.0672892723311987e-18
4150000,0.003799846644915997,12.499984955354208,-8.704148513061227e-14,-1.021405182655144e-13,1.0801408659326417e-18
4200000,0.0038028432965935975,12.499984776882824,-8.704148513061227e-14,-1.021405182655144e-13,1.0929924372049256e-18
4250000,0.0038056980647147446,12.499984598427782,-8.704148513061227e-14,-1.021405182655144e-13,1.1058439872832427e-18
4300000,0.0038084177714257737,12.499984419989088,-8.681944052568724e-14,-1.021405182655144e-13,1.1186955173914555e-18
4350000,0.0038110089148153396,12.499984241566757,-8.681944052568724e-14,-1.021405182655144e-13,1.1315470284504762e-18
4400000,0.0038134776753405496,12.499984063160795,-8.681944052568724e-14,-1.021405182655144e-13,1.1443985216486087e-18
4450000,0.0038158299402432185,12.499983884771213,-8.704148513061227e-14,-1.021405182655144e-13,1.157249997914001e-18
4500000,0.003818071302805445,12.49998370639802,-8.704148513061227e-14,-1.021405182655144e-13,1.170101458122213e-18
4550000,0.0038202070918289307,12.499983528041222,-8.681944052568724e-14,-1.021405182655144e-13,1.1829529033667343e-18
4600000,0.0038222423980148524,12.499983349700829,-8.659739592076221e-14,-1.021405182655144e-13,1.195804334241625e-18
4650000,0.003824182039311426,12.499983171376845,-8.681944052568724e-14,-1.021405182655144e-13,1.2086557517460803e-18
4700000,0.003826030625293148,12.499982993069281,-8.659739592076221e-14,-1.021405182655144e-13,1.2215071564549219e-18
4750000,0.003827792521315056,12.49998281477814,-8.681944052568724e-14,-1.021405182655144e-13,1.234358549169406e-18
4800000,0.0038294719030903444,12.499982636503429,-8.681944052568724e-14,-1.021405182655144e-13,1.2472099307287104e-18
4850000,0.0038310727398955537,12.499982458245153,-8.681944052568724e-14,-1.021405182655144e-13,1.2600613015137486e-18
4900000,0.003832598805273832,12.499982280003318,-8.681944052568724e-14,-1.021405182655144e-13,1.2729126623928664e-18
4950000,0.0038340536875601725,12.49998210177793,-8.681944052568724e-14,-1.0236256287043943e-13,1.285764013843159e-18
5000000,0.003835440813872131,12.49998192356899,-8.681944052568724e-14,-1.0236256287043943e-13,1.2986153565806003e-18
5050000,0.0038367634463511912,12.499981745376507,-8.681944052568724e-14,-1.0236256287043943e-13,1.3114666910250668e-18
5100000,0.0038380246913662453,12.499981567200482,-8.681944052568724e-14,-1.021405182655144e-13,1.3243180176337166e-18
5150000,0.0038392274832375413,12.49998138904092,-8.681944052568724e-14,-1.021405182655144e-13,1.3371693370220892e-18
5200000,0.0038403746336067956,12.499981210897824,-8.681944052568724e-14,-1.0236256287043943e-13,1.3500206497035701e-18
5250000,0.003841468829226521,12.499981032771197,-8.681944052568724e-14,-1.021405182655144e-13,1.3628719558838838e-18
5300000,0.0038425126073178863,12.499980854661043,-8.681944052568724e-14,-1.021405182655144e-13,1.3757232561620704e-18
5350000,0.003843508395589817,12.499980676567365,-8.681944052568724e-14,-1.021405182655144e-13,1.3885745509432005e-18
5400000,0.0038444584915169463,12.499980498490164,-8.681944052568724e-14,-1.021405182655144e-13,1.4014258406479121e-18
5450000,0.0038453651051732624,12.499980320429444,-8.681944052568724e-14,-1.021405182655144e-13,1.4142771255339042e-18
5500000,0.003846230322136155,12.499980142385205,-8.659739592076221e-14,-1.021405182655144e-13,1.4271284059875169e-18
5550000,0.003847056129833438,12.49997996435745,-8.659739592076221e-14,-1.0236256287043943e-13,1.4399796824267976e-18
5600000,0.003847844426640363,12.499979786346183,-8.681944052568724e-14,-1.021405182655144e-13,1.4528309550504727e-18
5650000,0.0038485970148031505,12.499979608351403,-8.681944052568724e-14,-1.021405182655144e-13,1.46568222413592e-18
5700000,0.0038493156043063574,12.499979430373113,-8.659739592076221e-14,-1.0191847366058937e-13,1.4785334901047585e-18
5750000,0.003850001838210911,12.499979252411315,-8.681944052568724e-14,-1.021405182655144e-13,1.4913847531031309e-18
5800000,0.0038506572654708553,12.49997907446601,-8.681944052568724e-14,-1.021405182655144e-13,1.5042360134620333e-18
5850000,0.003851283368557119,12.499978896537199,-8.681944052568724e-14,-1.021405182655144e-13,1.5170872713128527e-18
5900000,0.0038518815541475995,12.499978718624881,-8.659739592076221e-14,-1.021405182655144e-13,1.5299385270851701e-18
5950000,0.0038524531697650788,12.49997854072906,-8.681944052568724e-14,-1.021405182655144e-13,1.5427897808486098e-18
6000000,0.003852999493432468,12.499978362849735,-8.659739592076221e-14,-1.021405182655144e-13,1.5556410329028025e-18
6050000,0.0038535217384976406,12.499978184986906,-8.681944052568724e-14,-1.021405182655144e-13,1.5684922833769947e-18
6100000,0.003854021063508588,12.499978007140575,-8.659739592076221e-14,-1.021405182655144e-13,1.5813435324709313e-18
6150000,0.003854498570525231,12.499977829310742,-8.659739592076221e-14,-1.021405182655144e-13,1.5941947803539113e-18
6200000,0.00385495531026764,12.499977651497407,-8.681944052568724e-14,-1.0236256287043943e-13,1.607046027323532e-18
6250000,0.0038553922748742774,12.49997747370057,-8.681944052568724e-14,-1.021405182655144e-13,1.6198972734000233e-18
6300000,0.0038558104178522,12.499977295920232,-8.681944052568724e-14,-1.021405182655144e-13,1.6327485188786203e-18
6350000,0.003856210649330006,12.499977118156393,-8.681944052568724e-14,-1.021405182655144e-13,1.6455997636685916e-18
6400000,0.003856593816555418,12.499976940409052,-8.681944052568724e-14,-1.0191847366058937e-13,1.6584510081764176e-18
6450000,0.003856960750836353,12.499976762678212,-8.659739592076221e-14,-1.021405182655144e-13,1.6713022524169683e-18
6500000,0.003857312218645684,12.49997658496387,-8.681944052568724e-14,-1.0191847366058937e-13,1.68415349657719e-18
6550000,0.0038576489875837986,12.499976407266026,-8.659739592076221e-14,-1.021405182655144e-13,1.697004740632045e-18
6600000,0.0038579717514343487,12.49997622958468,-8.681944052568724e-14,-1.021405182655144e-13,1.7098559848204646e-18
6650000,0.0038582811784816724,12.499976051919832,-8.659739592076221e-14,-1.021405182655144e-13,1.7227072292709518e-18
6700000,0.0038585779174930366,12.499975874271483,-8.659739592076221e-14,-1.021405182655144e-13,1.73555847405999e-18
6750000,0.00385886257321027,12.49997569663963,-8.659739592076221e-14,-1.0236256287043943e-13,1.7484097193429695e-18
6800000,0.0038591357253501338,12.499975519024275,-8.681944052568724e-14,-1.021405182655144e-13,1.7612609650377226e-18
6850000,0.0038593979308634537,12.499975341425415,-8.681944052568724e-14,-1.021405182655144e-13,1.7741122113863586e-18
6900000,0.0038596497104957292,12.49997516384305,-8.681944052568724e-14,-1.021405182655144e-13,1.786963458420652e-18
6950000,0.0038598915717820343,12.49997498627718,-8.681944052568724e-14,-1.021405182655144e-13,1.799814706325427e-18
7000000,0.003860123987482519,12.499974808727805,-8.659739592076221e-14,-1.021405182655144e-13,1.8126659551180196e-18
7050000,0.003860347414419128,12.499974631194924,-8.681944052568724e-14,-1.021405182655144e-13,1.8255172048454416e-18
7100000,0.003860562277837251,12.499974453678535,-8.659739592076221e-14,-1.021405182655144e-13,1.8383684555851028e-18
7150000,0.0038607689948022394,12.499974276178637,-8.659739592076221e-14,-1.021405182655144e-13,1.851219707433198e-18
7200000,0.0038609679596982157,12.499974098695231,-8.659739592076221e-14,-1.021405182655144e-13,1.8640709603591104e-18
7250000,0.003861159545176446,12.499973921228316,-8.681944052568724e-14,-1.021405182655144e-13,1.876922214555367e-18
7300000,0.0038613441008525534,12.49997374377789,-8.659739592076221e-14,-1.0191847366058937e-13,1.889773470001498e-18
7350000,0.0038615219547240244,12.499973566343952,-8.681944052568724e-14,-1.0236256287043943e-13,1.9026247268274347e-18
7400000,0.003861693444444835,12.499973388926502,-8.659739592076221e-14,-1.021405182655144e-13,1.9154759850669575e-18
7450000,0.0038618588711314896,12.499973211525539,-8.659739592076221e-14,-1.021405182655144e-13,1.9283272446504428e-18
7500000,0.0038620185243253974,12.499973034141062,-8.659739592076221e-14,-1.021405182655144e-13,1.9411785057897374e-18
7550000,0.0038621726833590413,12.49997285677307,-8.681944052568724e-14,-1.021405182655144e-13,1.954029768456388e-18
7600000,0.003862321613395463,12.49997267942156,-8.659739592076221e-14,-1.021405182655144e-13,1.9668810325866845e-18
7650000,0.0038624655637611452,12.499972502086534,-8.681944052568724e-14,-1.021405182655144e-13,1.9797322984781993e-18
7700000,0.003862604769655597,12.499972324767988,-8.659739592076221e-14,-1.021405182655144e-13,1.9925835659887906e-18
7750000,0.003862739464167492,12.499972147465924,-8.681944052568724e-14,-1.0191847366058937e-13,2.0054348351564282e-18
7800000,0.0038628698649274267,12.499971970180336,-8.681944052568724e-14,-1.021405182655144e-13,2.01828610611078e-18
7850000,0.0038629961758217942,12.499971792911229,-8.681944052568724e-14,-1.021405182655144e-13,2.031137378850557e-18
7900000,0.0038631185941127924,12.499971615658596,-8.681944052568724e-14,-1.021405182655144e-13,2.0439886532877016e-18
7950000,0.003863237311148093,12.49997143842244,-8.659739592076221e-14,-1.0191847366058937e-13,2.0568399295383294e-18
8000000,0.0038633524956677243,12.499971261202758,-8.659739592076221e-14,-1.021405182655144e-13,2.069691207731403e-18
8050000,0.003863464326494098,12.499971083999549,-8.659739592076221e-14,-1.021405182655144e-13,2.0825424877811158e-18
8100000,0.003863572952632203,12.499970906812813,-8.659739592076221e-14,-1.021405182655144e-13,2.095393769714466e-18
8150000,0.0038636785341057997,12.499970729642547,-8.659739592076221e-14,-1.021405182655144e-13,2.10824505360169e-18
8200000,0.0038637812228301018,12.49997055248875,-8.659739592076221e-14,-1.0236256287043943e-13,2.1210963394460158e-18
8250000,0.003863881146908652,12.49997037535142,-8.659739592076221e-14,-1.021405182655144e-13,2.13394762733724e-18
8300000,0.0038639784487757086,12.499970198230558,-8.659739592076221e-14,-1.0236256287043943e-13,2.146798917175197e-18
8350000,0.0038640732463584952,12.499970021126162,-8.659739592076221e-14,-1.021405182655144e-13,2.1596502089798363e-18
