Timestep (s),Sum Voltage (V),Carry Out Voltage (V),Sum Error Rate (Dimless),Carry Out Error Rate (Dimless),Energy Dissipation (J)
0,0.00018585113844837308,12.499999820454702,-1.0080825063596421e-13,-1.0236256287043943e-13,2.612222038184983e-16
50000,0.00036273586723743745,12.499999640908452,-1.0014211682118912e-13,-1.0236256287043943e-13,2.637031454149583e-16
100000,0.000536984156418028,12.499999461361025,-9.947598300641403e-14,-1.0236256287043943e-13,2.661527044449606e-16
150000,0.0007092010060950999,12.499999281812086,-9.85878045867139e-14,-1.021405182655144e-13,2.685721721324526e-16
200000,0.0008803861131057081,12.499999102261201,-9.792167077193881e-14,-1.021405182655144e-13,2.7096276640386433e-16
250000,0.0010514503943768617,12.499998922707842,-9.747758156208874e-14,-1.021405182655144e-13,2.733256366858946e-16
300000,0.0012232315706288144,12.499998743151387,-9.658940314238862e-14,-1.0236256287043943e-13,2.756618683580675e-16
350000,0.0013965072768787998,12.499998563591124,-9.592326932761353e-14,-1.0236256287043943e-13,2.7797248689319686e-16
400000,0.0015720061553935595,12.499998384026247,-9.547918011776346e-14,-1.021405182655144e-13,2.80258461710165e-16
450000,0.0017504172976256227,12.499998204455864,-9.481304630298837e-14,-1.0236256287043943e-13,2.825207097613146e-16
500000,0.0019323983312694317,12.499998024878993,-9.414691248821327e-14,-1.021405182655144e-13,2.847600988754055e-16
550000,0.0021185823927019325,12.49999784529456,-9.325873406851315e-14,-1.021405182655144e-13,2.8697745087561514e-16
600000,0.00230958418056294,12.499997665701402,-9.237055564881302e-14,-1.021405182655144e-13,2.891735444889802e-16
650000,0.0025060052506309235,12.499997486098263,-9.170442183403793e-14,-1.021405182655144e-13,2.913491180642406e-16
700000,0.0027084386835567868,12.499997306483788,-9.103828801926284e-14,-1.0191847366058937e-13,2.9350487211276894e-16
750000,0.0029174732339757475,12.499997126856528,-9.037215420448774e-14,-1.021405182655144e-13,2.956414716853651e-16
800000,0.003133697050884429,12.499996947214932,-8.948397578478762e-14,-1.0191847366058937e-13,2.9775954859863097e-16
850000,0.0033577010440387217,12.499996767557347,-8.859579736508749e-14,-1.0236256287043943e-13,2.998597035213794e-16
900000,0.0035900819588113833,12.49999658788201,-8.770761894538737e-14,-1.021405182655144e-13,3.0194250793229353e-16
950000,0.0038314452118890716,12.499996408187046,-8.681944052568724e-14,-1.0236256287043943e-13,3.0400850595862205e-16
1000000,0.004082407531935206,12.499996228470469,-8.593126210598712e-14,-1.021405182655144e-13,3.060582161045207e-16
1050000,0.004343599442578241,12.499996048730168,-8.482103908136196e-14,-1.021405182655144e-13,3.0809213287798034e-16
1100000,0.004615667619490598,12.49999586896391,-8.393286066166183e-14,-1.021405182655144e-13,3.1011072832398493e-16
1150000,0.004899277148718012,12.49999568916933,-8.282263763703668e-14,-1.021405182655144e-13,3.121144534706567e-16
1200000,0.005195113709587491,12.499995509343924,-8.171241461241152e-14,-1.0236256287043943e-13,3.1410373969589756e-16
1250000,0.005503885702355228,12.49999532948505,-8.08242361927114e-14,-1.021405182655144e-13,3.160790000199664e-16
1300000,0.0058263263381033515,12.499995149589914,-7.971401316808624e-14,-1.0236256287043943e-13,3.180406303301626e-16
1350000,0.006163195706197706,12.49999496965557,-7.838174553853605e-14,-1.0236256287043943e-13,3.1998901054352115e-16
1400000,0.006515282832762089,12.499994789678903,-7.704947790898586e-14,-1.021405182655144e-13,3.2192450571199597e-16
1450000,0.006883407742088531,12.499994609656632,-7.571721027943568e-14,-1.0236256287043943e-13,3.2384746707514667e-16
1500000,0.007268423531594241,12.499994429585298,-7.438494264988549e-14,-1.021405182655144e-13,3.2575823306527166e-16
1550000,0.00767121846983733,12.499994249461253,-7.30526750203353e-14,-1.0236256287043943e-13,3.276571302691719e-16
1600000,0.00809271812618332,12.499994069280653,-7.172040739078511e-14,-1.021405182655144e-13,3.295444743507735e-16
1650000,0.00853388753991713,12.49999388903945,-7.038813976123492e-14,-1.021405182655144e-13,3.3142057093882614e-16
1700000,0.008995733435927343,12.49999370873338,-6.88338275267597e-14,-1.0236256287043943e-13,3.332857164836685e-16
1750000,0.009479306493509485,12.499993528357953,-6.727951529228449e-14,-1.0236256287043943e-13,3.351401990870049e-16
1800000,0.009985703674338233,12.499993347908443,-6.572520305780927e-14,-1.021405182655144e-13,3.3698429930906855e-16
1850000,0.010516070615217567,12.499993167379877,-6.394884621840902e-14,-1.021405182655144e-13,3.388182909569304e-16
1900000,0.011071604090836499,12.499992986767019,-6.217248937900877e-14,-1.021405182655144e-13,3.406424418581916e-16
1950000,0.011653554551410603,12.49999280606436,-6.061817714453355e-14,-1.0236256287043943e-13,3.42457014625158e-16
2000000,0.012263228739774215,12.499992625266108,-5.861977570020827e-14,-1.021405182655144e-13,3.4426226741366675e-16
2050000,0.01290199239219864,12.499992444366168,-5.684341886080802e-14,-1.0236256287043943e-13,3.460584546821326e-16
2100000,0.013571273026927228,12.499992263358129,-5.484501741648273e-14,-1.021405182655144e-13,3.478458279571261e-16
2150000,0.014272562824158227,12.49999208223525,-5.284661597215745e-14,-1.021405182655144e-13,3.496246366116598e-16
2200000,0.01500742160092996,12.499991900990445,-5.10702591327572e-14,-1.021405182655144e-13,3.5139512866407036e-16
2250000,0.01577747988409546,12.499991719616258,-4.929390229335695e-14,-1.021405182655144e-13,3.531575516072107e-16
2300000,0.016584442084293518,12.499991538104856,-4.6851411639181606e-14,-1.021405182655144e-13,3.549121532780173e-16
2350000,0.017430089773524237,12.499991356448005,-4.4853010194856324e-14,-1.0236256287043943e-13,3.566591827812926e-16
2400000,0.018316285068624892,12.499991174637044,-4.263256414560601e-14,-1.0236256287043943e-13,3.5839889148375025e-16
2450000,0.019244974122597815,12.499990992662875,-4.063416270128073e-14,-1.021405182655144e-13,3.601315340982492e-16
2500000,0.02021819072536894,12.499990810515934,-3.8413716652030416e-14,-1.0236256287043943e-13,3.6185736988401315e-16
2550000,0.0212380600151439,12.499990628186168,-3.6415315207705135e-14,-1.021405182655144e-13,3.6357666399466436e-16
2600000,0.022306802301066256,12.499990445663018,-3.419486915845482e-14,-1.021405182655144e-13,3.6528968901635403e-16
2650000,0.023426736997366686,12.499990262935382,-3.219646771412954e-14,-1.021405182655144e-13,3.6699672675013924e-16
2700000,0.024600286668591282,12.499990079991598,-3.019806626980426e-14,-1.021405182655144e-13,3.6869807031079415e-16
2750000,0.025829981184812167,12.499989896819411,-2.7977620220553945e-14,-1.021405182655144e-13,3.703940266393512e-16
2800000,0.02711846198488764,12.499989713405945,-2.5757174171303632e-14,-1.021405182655144e-13,3.72084919560407e-16
2850000,0.028468486444815345,12.499989529737674,-2.398081733190338e-14,-1.021405182655144e-13,3.7377109356705725e-16
2900000,0.029882932346892908,12.499989345800381,-2.1760371282653068e-14,-1.021405182655144e-13,3.7545291858888486e-16
2950000,0.03136480244358453,12.499989161579139,-1.9984014443252818e-14,-1.021405182655144e-13,3.7713079610952663e-16
3000000,0.03291722910736308,12.49998897705826,-1.8207657603852567e-14,-1.0236256287043943e-13,3.7880516716833933e-16
3050000,0.03454347905373613,12.499988792221266,-1.6431300764452317e-14,-1.021405182655144e-13,3.804765230457264e-16
3100000,0.03624695811799312,12.499988607050847,-1.4654943925052066e-14,-1.0236256287043943e-13,3.8214541985589645e-16
3150000,0.038031216054630106,12.499988421528817,-1.3100631690576847e-14,-1.021405182655144e-13,3.838124989788458e-16
3200000,0.03989995130714177,12.499988235636078,-1.176836406102666e-14,-1.021405182655144e-13,3.854761761744509e-16
3250000,0.041857015654814284,12.499988049352563,-1.021405182655144e-14,-1.0236256287043943e-13,3.8713505658622023e-16
3300000,0.043906399924742184,12.4999878626572,-8.881784197001252e-15,-1.021405182655144e-13,3.8878782791679214e-16
3350000,0.04605214418045056,12.499987675527851,-7.549516567451064e-15,-1.021405182655144e-13,3.904333768801016e-16
3400000,0.04829859726294724,12.499987487941265,-6.439293542825908e-15,-1.021405182655144e-13,3.9207236013335048e-16
3450000,0.05065028086100888,12.499987299873021,-5.551115123125783e-15,-1.021405182655144e-13,3.9370536025229797e-16
3500000,0.05311189449334519,12.499987111297468,-4.6629367034256575e-15,-1.021405182655144e-13,3.9533290558619433e-16
3550000,0.05568832052459485,12.499986922187665,-3.9968028886505635e-15,-1.021405182655144e-13,3.969554844008674e-16
3600000,0.058384629121340514,12.499986732515316,-3.1086244689504383e-15,-1.021405182655144e-13,3.9857355519435456e-16
3650000,0.06120608309401897,12.499986542250703,-2.6645352591003757e-15,-1.0191847366058937e-13,4.0018755437676547e-16
3700000,0.06415814258533041,12.499986351362613,-2.220446049250313e-15,-1.021405182655144e-13,4.0179790209113095e-16
3750000,0.06724646957021882,12.499986159818267,-1.5543122344752192e-15,-1.0191847366058937e-13,4.0340500669346165e-16
3800000,0.07047693213257686,12.499985967583232,-1.1102230246251565e-15,-1.021405182655144e-13,4.0500926824707256e-16
3850000,0.07385560848201345,12.499985774621353,-1.1102230246251565e-15,-1.021405182655144e-13,4.0661108127726487e-16
3900000,0.07738879067137217,12.499985580894654,-8.881784197001252e-16,-1.0236256287043943e-13,4.082108369616953e-16
3950000,0.081082987972685,12.499985386363253,-6.661338147750939e-16,-1.021405182655144e-13,4.098089248819632e-16
4000000,0.08494492986614592,12.499985190985267,-2.220446049250313e-16,-1.021405182655144e-13,4.114057344277243e-16
4050000,0.08898156859355692,12.499984994716709,-2.220446049250313e-16,-1.021405182655144e-13,4.130016559212613e-16
4100000,0.09320008122466929,12.499984797511381,-2.220446049250313e-16,-1.021405182655144e-13,4.1459708151180687e-16
4150000,0.09760787118190484,12.49998459932077,1.1102230246251565e-16,-1.021405182655144e-13,4.1619240587743606e-16
4200000,0.10221256916617731,12.499984400093927,0.0,-1.021405182655144e-13,4.17788026762814e-16
4250000,0.10702203342397895,12.499984199777346,1.1102230246251565e-16,-1.021405182655144e-13,4.1938434537335015e-16
4300000,0.11204434929359595,12.499983998314836,0.0,-1.021405182655144e-13,4.209817666425076e-16
4350000,0.11728782796633,12.499983795647383,1.1102230246251565e-16,-1.0236256287043943e-13,4.2258069938375767e-16
4400000,0.12276100439699256,12.49998359171302,1.1102230246251565e-16,-1.021405182655144e-13,4.2418155633665133e-16
4450000,0.12847263429676462,12.499983386446667,0.0,-1.021405182655144e-13,4.257847541135697e-16
4500000,0.13443169014085116,12.499983179779978,1.1102230246251565e-16,-1.021405182655144e-13,4.2739071305253016e-16
4550000,0.1406473561232853,12.499982971641181,2.220446049250313e-16,-1.021405182655144e-13,4.2899985697953703e-16
4600000,0.14712902199182015,12.499982761954906,0.0,-1.021405182655144e-13,4.3061261288378486e-16
4650000,0.15388627569717864,12.499982550641999,0.0,-1.021405182655144e-13,4.322294105074722e-16
4700000,0.1609288947930819,12.499982337619342,2.220446049250313e-16,-1.021405182655144e-13,4.338506818522415e-16
4750000,0.16826683652653912,12.499982122799643,0.0,-1.021405182655144e-13,4.354768606039042e-16
4800000,0.1759102265619204,12.499981906091241,0.0,-1.021405182655144e-13,4.371083814764367e-16
4850000,0.18386934628742904,12.499981687397872,1.1102230246251565e-16,-1.0191847366058937e-13,4.3874567947726686e-16
4900000,0.19215461865880568,12.499981466618449,1.1102230246251565e-16,-1.0236256287043943e-13,4.403891890951629e-16
4950000,0.2007765925424867,12.499981243646818,4.440892098500626e-16,-1.021405182655144e-13,4.4203934341289568e-16
5000000,0.2097459255290498,12.499981018371503,0.0,-1.021405182655144e-13,4.436965731467507e-16
5050000,0.21907336519763504,12.49998079067544,0.0,-1.021405182655144e-13,4.453613056162057e-16
5100000,0.22876972882314447,12.499980560435699,0.0,-1.021405182655144e-13,4.47033963646579e-16
5150000,0.23884588153038033,12.499980327523186,-2.220446049250313e-16,-1.021405182655144e-13,4.487149644092817e-16
5200000,0.24931271291284976,12.49998009180234,-2.220446049250313e-16,-1.021405182655144e-13,4.504047182036838e-16
5250000,0.2601811121486761,12.499979853130805,-2.220446049250313e-16,-1.021405182655144e-13,4.521036271865003e-16
5300000,0.27146194166182896,12.499979611359091,-2.220446049250313e-16,-1.021405182655144e-13,4.53812084054467e-16
5350000,0.2831660093935793,12.499979366330217,0.0,-1.021405182655144e-13,4.555304706873054e-16
5400000,0.29530403976657055,12.499979117879338,-2.220446049250313e-16,-1.021405182655144e-13,4.572591567585728e-16
5450000,0.3078866434419544,12.499978865833349,0.0,-1.021405182655144e-13,4.589984983226468e-16
5500000,0.3209242859884767,12.499978610010471,0.0,-1.021405182655144e-13,4.607488363870104e-16
5550000,0.33442725560094033,12.499978350219822,0.0,-1.021405182655144e-13,4.625104954793688e-16
5600000,0.3484056300238558,12.499978086260954,0.0,-1.021405182655144e-13,4.642837822200066e-16
5650000,0.3628692428539814,12.499977817923382,1.1102230246251565e-16,-1.0236256287043943e-13,4.660689839101115e-16
5700000,0.3778276494125614,12.499977544986075,3.3306690738754696e-16,-1.021405182655144e-13,4.678663671473908e-16
5750000,0.393290092394003,12.499977267216936,1.1102230246251565e-16,-1.021405182655144e-13,4.696761764801821e-16
5800000,0.40926546751218157,12.49997698437224,0.0,-1.021405182655144e-13,4.714986331122736e-16
5850000,0.4257622893781392,12.499976696196066,0.0,-1.021405182655144e-13,4.733339336697472e-16
5900000,0.44278865785331806,12.499976402419673,-2.220446049250313e-16,-1.0191847366058937e-13,4.751822490419009e-16
5950000,0.460352225130317,12.499976102760865,-2.220446049250313e-16,-1.021405182655144e-13,4.770437233076111e-16
6000000,0.4784601637981698,12.499975796923325,-2.220446049250313e-16,-1.021405182655144e-13,4.789184727581174e-16
6050000,0.49711913615105746,12.499975484595902,-4.440892098500626e-16,-1.021405182655144e-13,4.808065850273982e-16
6100000,0.5163352649979778,12.499975165451875,1.1102230246251565e-16,-1.0191847366058937e-13,4.827081183397741e-16
6150000,0.5361141062260314,12.499974839148175,0.0,-1.0236256287043943e-13,4.846231008842895e-16
6200000,0.5564606233615526,12.499974505324566,2.220446049250313e-16,-1.021405182655144e-13,4.865515303247334e-16
6250000,0.577379164361303,12.499974163602797,1.1102230246251565e-16,-1.021405182655144e-13,4.884933734529578e-16
6300000,0.5988734408503834,12.499973813585697,1.1102230246251565e-16,-1.0191847366058937e-13,4.904485659929154e-16
6350000,0.6209465100045506,12.499973454856235,2.220446049250313e-16,-1.021405182655144e-13,4.924170125623057e-16
6400000,0.6436007592524373,12.499973086976535,0.0,-1.021405182655144e-13,4.943985867981608e-16
6450000,0.6668378939480315,12.499972709486832,-3.260214320732757e-11,-1.021405182655144e-13,4.96393131653609e-16
6500000,0.690658928136011,12.499972321904389,-4.401812248033821e-12,-1.0191847366058937e-13,4.983995574475774e-16
6550000,0.7150641781694913,12.499971923722352,-4.636291350834654e-13,-1.021405182655144e-13,5.004143297149661e-16
6600000,0.7400532593994286,12.499971514408553,2.339239912885205e-13,-1.021405182655144e-13,5.024374692557991e-16
6650000,0.7656250889293961,12.499971093404255,3.686939642477682e-12,-1.021405182655144e-13,5.044689866706856e-16
6700000,0.7917778879674938,12.49997066012283,4.578848411540548e-11,-1.021405182655144e-13,5.065088480116029e-16
6750000,0.8185091888249435,12.499970213948382,5.230864630334509e-10,-1.0191847366058937e-13,5.085569777768692e-16
6800000,0.8458158450864118,12.49996975423429,5.4521667181006706e-09,-1.021405182655144e-13,5.106132616313609e-16
6850000,0.8736940448508765,12.499969280301691,5.138126479842242e-08,-1.021405182655144e-13,5.126775489179942e-16
6900000,0.9021393269124525,12.499968791437889,4.338437620265978e-07,-1.021405182655144e-13,5.147496550101932e-16
6950000,0.9311465997231669,12.49996828689467,3.2525840019115293e-06,-1.021405182655144e-13,5.16829363541828e-16
7000000,0.9607101629547145,12.499967765886568,2.1459552339564425e-05,-1.021405182655144e-13,5.189164285412961e-16
7050000,0.9908237314541531,12.499967227589005,0.00012352153975681013,-1.021405182655144e-13,5.210105764893494e-16
7100000,1.0214804613696324,12.499966671136375,0.000615163959041265,-1.0191847366058937e-13,5.231115083143563e-16
7150000,1.0526729782068118,12.499966095620026,0.002630315031663444,-1.021405182655144e-13,5.252189013339078e-16
7200000,1.084393406564778,12.49996550008613,0.009589563368048837,-1.021405182655144e-13,5.273324111487548e-16
7250000,1.1166334012920656,12.499964883533474,0.029641513080588267,-1.021405182655144e-13,5.294516734921666e-16
7300000,1.1493841797988154,12.499964244911125,0.07737930056006825,-1.021405182655144e-13,5.315763060354346e-16
7350000,1.1826365552600848,12.499963583115992,0.17038043011338733,-1.021405182655144e-13,5.337059101496029e-16
7400000,1.21638097044767,12.499962896990274,0.3172349576206447,-1.0191847366058937e-13,5.358400726214687e-16
7450000,1.2506075319333438,12.499962185318775,0.5034275897143872,-1.0191847366058937e-13,5.379783673217057e-16
7500000,1.285306044414834,12.499961446826108,0.6912169826674343,-1.021405182655144e-13,5.401203568227141e-16
7550000,1.3204660449268897,12.499960680173743,0.840506167412697,-1.021405182655144e-13,5.422655939628668e-16
7600000,1.3560768367130642,12.499959883956938,0.9332126141168909,-1.021405182655144e-13,5.444136233542543e-16
7650000,1.392127522549016,12.499959056701508,0.977783701722363,-1.0191847366058937e-13,5.465639828314558e-16
7700000,1.4286070373248279,12.499958196860447,0.994229636503222,-1.021405182655144e-13,5.487162048380182e-16
7750000,1.4655041797117114,12.499957302810397,0.9988469590074572,-1.021405182655144e-13,5.508698177489547e-16
7800000,1.5028076427571215,12.499956372847937,0.9998250465997335,-1.0191847366058937e-13,5.530243471266698e-16
7850000,1.5405060432714288,12.499955405185712,0.9999800774362906,-1.021405182655144e-13,5.55179316909188e-16
7900000,1.578587949888547,12.499954397948375,0.9999983154865497,-1.0191847366058937e-13,5.573342505291679e-16
7950000,1.6170419097020072,12.499953349168338,0.9999998952792915,-1.021405182655144e-13,5.594886719633242e-16
8000000,1.6558564733966403,12.49995225678133,0.9999999952571432,-1.021405182655144e-13,5.616421067115286e-16
8050000,1.6950202188140373,12.49995111862175,0.999999999844843,-1.0191847366058937e-13,5.637940827060333e-16
8100000,1.7345217729071303,12.4999499324178,0.9999999999963631,-1.0191847366058937e-13,5.659441311513505e-16
8150000,1.774349832055385,12.499948695786408,0.9999999999999394,-1.0191847366058937e-13,5.680917872955427e-16
8200000,1.8144931807271198,12.499947406227898,0.9999999999999993,-1.0191847366058937e-13,5.702365911342323e-16
8250000,1.8549407084892555,12.499946061120447,1.0,-1.0191847366058937e-13,5.723780880489349e-16
8300000,1.8956814253773044,12.499944657714265,1.0,-1.0191847366058937e-13,5.745158293816372e-16
8350000,1.9367044756495924,12.499943193125528,1.0,-1.021405182655144e-13,5.766493729476181e-16
8400000,1.9779991499595562,12.49994166433004,1.0,-1.021405182655144e-13,5.787782834888415e-16
8450000,2.0195548959885032,12.499940068156603,1.0,-1.0191847366058937e-13,5.80902133070538e-16
8500000,2.0613613275884863,12.499938401280108,1.0,-1.0191847366058937e-13,5.830205014234619e-16
8550000,2.1034082324909744,12.499936660214319,1.0,-1.0191847366058937e-13,5.8513297623465e-16
8600000,2.145685578641889,12.499934841304336,1.0,-1.0191847366058937e-13,5.872391533894304e-16
8650000,2.1881835192273495,12.499932940718745,1.0,-1.0191847366058937e-13,5.893386371676655e-16
8700000,2.230892396457261,12.499930954441417,1.0,-1.0191847366058937e-13,5.914310403971019e-16
8750000,2.2738027441757382,12.49992887826298,1.0,-1.0191847366058937e-13,5.935159845666144e-16
