Timestep (s),Sum Voltage (V),Carry Out Voltage (V),Sum Error Rate (Dimless),Carry Out Error Rate (Dimless),Energy Dissipation (J)
0,0.00018585113844837308,12.499999820455539,-1.0080825063596421e-13,-1.0236256287043943e-13,1.288257040572406e-20
50000,0.00036273584969483526,12.499999640911879,-1.0014211682118912e-13,-1.021405182655144e-13,2.5763403799412798e-20
100000,0.0005310883673175929,12.499999461369784,-9.9253938401489e-14,-1.0236256287043943e-13,3.864259600668534e-20
150000,0.0006913217556585031,12.49999928182998,-9.880984919163893e-14,-1.0236256287043943e-13,5.152023696301893e-20
200000,0.0008438289493475214,12.499999102293158,-9.814371537686384e-14,-1.021405182655144e-13,6.439641132130087e-20
250000,0.0009889837463013455,12.499998922759975,-9.747758156208874e-14,-1.021405182655144e-13,7.727119867636237e-20
300000,0.0011271417566883744,12.499998743231057,-9.703349235223868e-14,-1.021405182655144e-13,9.014467410693181e-20
350000,0.0012586412747881462,12.499998563707,-9.636735853746359e-14,-1.0236256287043943e-13,1.03016908177569e-19
400000,0.001383804172388907,12.499998384188373,-9.614531393253856e-14,-1.0236256287043943e-13,1.1588796722244127e-19
450000,0.0015029366697871674,12.499998204675716,-9.547918011776346e-14,-1.021405182655144e-13,1.2875791395867946e-19
500000,0.0016163301117267544,12.49999802516954,-9.50350909079134e-14,-1.0236256287043943e-13,1.4162680745961922e-19
550000,0.0017242617295661921,12.499997845670338,-9.459100169806334e-14,-1.0236256287043943e-13,1.544947034673958e-19
600000,0.0018269952697511868,12.499997666178574,-9.43689570931383e-14,-1.021405182655144e-13,1.673616544519995e-19
650000,0.0019247817116078265,12.499997486694692,-9.392486788328824e-14,-1.0236256287043943e-13,1.802277100768427e-19
700000,0.002017859850005173,12.499997307219113,-9.348077867343818e-14,-1.0236256287043943e-13,1.9309291716306498e-19
750000,0.0021064569220410156,12.49999712775224,-9.325873406851315e-14,-1.021405182655144e-13,2.0595732000076053e-19
800000,0.00219078913946506,12.499996948294454,-9.303668946358812e-14,-1.021405182655144e-13,2.188209604052099e-19
850000,0.0022710622722073664,12.499996768846119,-9.259260025373806e-14,-1.021405182655144e-13,2.316838777629374e-19
900000,0.002347472116231874,12.499996589407582,-9.237055564881302e-14,-1.0236256287043943e-13,2.445461095352732e-19
950000,0.002420204984234304,12.499996409979172,-9.192646643896296e-14,-1.0236256287043943e-13,2.574076909307735e-19
1000000,0.002489438200725833,12.499996230561203,-9.192646643896296e-14,-1.021405182655144e-13,2.702686554261587e-19
1050000,0.0025553404813322645,12.499996051153975,-9.14823772291129e-14,-1.021405182655144e-13,2.831290346385651e-19
1100000,0.0026180724027789933,12.49999587175777,-9.126033262418787e-14,-1.021405182655144e-13,2.959888585330119e-19
1150000,0.0026777868008630275,12.49999569237286,-9.126033262418787e-14,-1.021405182655144e-13,3.088481551691337e-19
1200000,0.0027346290903129287,12.4999955129995,-9.103828801926284e-14,-1.021405182655144e-13,3.2170695156079258e-19
1250000,0.0027887376806036332,12.499995333637939,-9.059419880941277e-14,-1.021405182655144e-13,3.3456527302182633e-19
1300000,0.002840244303550924,12.499995154288408,-9.059419880941277e-14,-1.021405182655144e-13,3.474231436343425e-19
1350000,0.0028892743079246184,12.499994974951129,-9.037215420448774e-14,-1.021405182655144e-13,3.6028058617737626e-19
1400000,0.00293594699050616,12.499994795626312,-9.015010959956271e-14,-1.021405182655144e-13,3.7313762232537696e-19
1450000,0.0029803759259725707,12.499994616314162,-8.992806499463768e-14,-1.021405182655144e-13,3.859942724892623e-19
1500000,0.003022669166134013,12.499994437014866,-8.970602038971265e-14,-1.0236256287043943e-13,3.9885055604732384e-19
1550000,0.0030629295800228477,12.499994257728607,-8.970602038971265e-14,-1.021405182655144e-13,4.1170649140515475e-19
1600000,0.0031012550582499377,12.49999407845556,-8.948397578478762e-14,-1.021405182655144e-13,4.2456209604322973e-19
1650000,0.0031377387740703947,12.499993899195887,-8.948397578478762e-14,-1.0191847366058937e-13,4.37417386435251e-19
1700000,0.0031724694024615114,12.499993719949748,-8.926193117986259e-14,-1.021405182655144e-13,4.502723784788444e-19
1750000,0.003205531343069733,12.49999354071729,-8.926193117986259e-14,-1.021405182655144e-13,4.631270870414421e-19
1800000,0.0032370049374661966,12.499993361498655,-8.881784197001252e-14,-1.0236256287043943e-13,4.759815261654864e-19
1850000,0.003266966646143468,12.499993182293979,-8.881784197001252e-14,-1.0236256287043943e-13,4.888357091350435e-19
1900000,0.003295489237729422,12.499993003103391,-8.859579736508749e-14,-1.021405182655144e-13,5.016896489766996e-19
1950000,0.0033226419862200955,12.499992823927013,-8.881784197001252e-14,-1.021405182655144e-13,5.145433576352243e-19
2000000,0.0033484908266733387,12.49999264476496,-8.859579736508749e-14,-1.021405182655144e-13,5.273968466480296e-19
2050000,0.0033730985063708916,12.499992465617344,-8.859579736508749e-14,-1.021405182655144e-13,5.402501268868311e-19
2100000,0.0033965247588658436,12.499992286484272,-8.837375276016246e-14,-1.0236256287043943e-13,5.531032087196582e-19
2150000,0.0034188264372326193,12.499992107365841,-8.837375276016246e-14,-1.021405182655144e-13,5.659561019933452e-19
2200000,0.0034400576541349366,12.499991928262148,-8.837375276016246e-14,-1.0236256287043943e-13,5.788088160900387e-19
2250000,0.003460269920390626,12.499991749173283,-8.837375276016246e-14,-1.021405182655144e-13,5.91661359891492e-19
2300000,0.003479512263629709,12.499991570099333,-8.815170815523743e-14,-1.0236256287043943e-13,6.045137418557738e-19
2350000,0.003497831362549894,12.499991391040378,-8.79296635503124e-14,-1.021405182655144e-13,6.173659698927198e-19
2400000,0.003515271622875916,12.499991211996498,-8.79296635503124e-14,-1.021405182655144e-13,6.302180517327222e-19
2450000,0.0035318753366088643,12.499991032967767,-8.79296635503124e-14,-1.021405182655144e-13,6.430699945272262e-19
2500000,0.0035476827485425985,12.499990853954255,-8.79296635503124e-14,-1.0236256287043943e-13,6.55921805103271e-19
2550000,0.0035627321502680544,12.49999067495603,-8.79296635503124e-14,-1.021405182655144e-13,6.687734901148166e-19
2600000,0.0035770600181492347,12.499990495973154,-8.770761894538737e-14,-1.021405182655144e-13,6.816250557808369e-19
2650000,0.0035907010683215146,12.49999031700569,-8.748557434046234e-14,-1.0236256287043943e-13,6.944765078601474e-19
2700000,0.003603688320113287,12.499990138053693,-8.770761894538737e-14,-1.0236256287043943e-13,7.073278522125647e-19
2750000,0.0036160532356514217,12.49998995911722,-8.770761894538737e-14,-1.021405182655144e-13,7.201790940161614e-19
2800000,0.003627825746841068,12.499989780196325,-8.748557434046234e-14,-1.021405182655144e-13,7.330302384017053e-19
2850000,0.003639034352546845,12.499989601291054,-8.748557434046234e-14,-1.021405182655144e-13,7.458812901679842e-19
2900000,0.003649706162305156,12.499989422401454,-8.748557434046234e-14,-1.0236256287043943e-13,7.587322539922217e-19
2950000,0.003659867014562034,12.49998924352757,-8.748557434046234e-14,-1.021405182655144e-13,7.715831340978826e-19
3000000,0.0036695414637555788,12.499989064669448,-8.748557434046234e-14,-1.021405182655144e-13,7.844339347647378e-19
3050000,0.0036787529149794615,12.499988885827126,-8.748557434046234e-14,-1.021405182655144e-13,7.972846598399964e-19
3100000,0.00368752363280135,12.499988707000641,-8.72635297355373e-14,-1.0236256287043943e-13,8.101353131019644e-19
3150000,0.003695874813117331,12.499988528190032,-8.748557434046234e-14,-1.0236256287043943e-13,8.229858981695171e-19
3200000,0.0037038266390253347,12.499988349395332,-8.72635297355373e-14,-1.021405182655144e-13,8.358364183537161e-19
3250000,0.0037113983049223247,12.499988170616575,-8.72635297355373e-14,-1.021405182655144e-13,8.486868770122358e-19
3300000,0.00371860810388914,12.499987991853793,-8.72635297355373e-14,-1.021405182655144e-13,8.615372770846482e-19
3350000,0.003725473426796194,12.499987813107014,-8.72635297355373e-14,-1.021405182655144e-13,8.743876215178588e-19
3400000,0.0037320108538803913,12.499987634376266,-8.704148513061227e-14,-1.021405182655144e-13,8.872379131001043e-19
3450000,0.0037382361381542877,12.499987455661577,-8.704148513061227e-14,-1.0236256287043943e-13,9.000881546159682e-19
3500000,0.0037441643026688235,12.499987276962973,-8.704148513061227e-14,-1.0236256287043943e-13,9.129383484416904e-19
3550000,0.003749809626783122,12.499987098280476,-8.72635297355373e-14,-1.0236256287043943e-13,9.257884969714668e-19
3600000,0.003755185709879465,12.499986919614111,-8.704148513061227e-14,-1.021405182655144e-13,9.386386025298082e-19
3650000,0.003760305499263955,12.499986740963898,-8.704148513061227e-14,-1.021405182655144e-13,9.514886672899987e-19
3700000,0.003765181328595897,12.499986562329857,-8.704148513061227e-14,-1.021405182655144e-13,9.643386933275257e-19
3750000,0.0037698249145338867,12.49998638371201,-8.704148513061227e-14,-1.021405182655144e-13,9.771886825691682e-19
3800000,0.0037742474410069615,12.499986205110375,-8.704148513061227e-14,-1.021405182655144e-13,9.900386368993025e-19
3850000,0.0037784595228795527,12.499986026524969,-8.72635297355373e-14,-1.0236256287043943e-13,1.0028885580493367e-18
3900000,0.0037824712785206626,12.499985847955807,-8.681944052568724e-14,-1.021405182655144e-13,1.0157384478171687e-18
3950000,0.0037862923506330436,12.499985669402909,-8.704148513061227e-14,-1.0236256287043943e-13,1.0285883077179295e-18
4000000,0.003789931901563618,12.499985490866285,-8.681944052568724e-14,-1.021405182655144e-13,1.0414381392820164e-18
4050000,0.003793398663168445,12.499985312345952,-8.704148513061227e-14,-1.021405182655144e-13,1.054287944019249e-18
4100000,0.003796700934793697,12.499985133841923,-8.704148513061227e-14,-1.021405182655144e-13,1.0671377232390922e-18
4150000,0.003799846636656544,12.499984955354211,-8.704148513061227e-14,-1.021405182655144e-13,1.0799874783907473e-18
4200000,0.0038028432878398108,12.499984776882828,-8.704148513061227e-14,-1.0236256287043943e-13,1.0928372105323086e-18
4250000,0.0038056980535456308,12.499984598427785,-8.704148513061227e-14,-1.021405182655144e-13,1.105686921024199e-18
4300000,0.0038084177631390903,12.499984419989092,-8.704148513061227e-14,-1.021405182655144e-13,1.1185366110666034e-18
4350000,0.0038110089028013552,12.49998424156676,-8.681944052568724e-14,-1.021405182655144e-13,1.1313862814655247e-18
4400000,0.003813477660655362,12.499984063160799,-8.681944052568724e-14,-1.021405182655144e-13,1.144235933500196e-18
4450000,0.0038158299214344424,12.499983884771217,-8.681944052568724e-14,-1.021405182655144e-13,1.1570855679863907e-18
4500000,0.0038180712848525484,12.499983706398023,-8.681944052568724e-14,-1.021405182655144e-13,1.16993518605075e-18
4550000,0.003820207085425376,12.499983528041225,-8.681944052568724e-14,-1.021405182655144e-13,1.1827847882687048e-18
4600000,0.0038222423877344197,12.499983349700832,-8.681944052568724e-14,-1.021405182655144e-13,1.1956343757565856e-18
4650000,0.0038241820258586917,12.499983171376849,-8.681944052568724e-14,-1.021405182655144e-13,1.2084839492930726e-18
4700000,0.0038260306139029777,12.499982993069285,-8.681944052568724e-14,-1.021405182655144e-13,1.2213335094956204e-18
4750000,0.003827792506398506,12.499982814778145,-8.681944052568724e-14,-1.0236256287043943e-13,1.2341830573409029e-18
4800000,0.0038294718947436916,12.499982636503434,-8.681944052568724e-14,-1.0236256287043943e-13,1.2470325932931282e-18
4850000,0.0038310727348114405,12.499982458245158,-8.681944052568724e-14,-1.021405182655144e-13,1.2598821179770077e-18
4900000,0.003832598800633789,12.499982280003323,-8.681944052568724e-14,-1.021405182655144e-13,1.2727316322064477e-18
4950000,0.0038340536784169637,12.499982101777935,-8.681944052568724e-14,-1.021405182655144e-13,1.2855811365902723e-18
5000000,0.003835440809332826,12.499981923568996,-8.659739592076221e-14,-1.021405182655144e-13,1.2984306315400712e-18
5050000,0.0038367634419741903,12.499981745376513,-8.681944052568724e-14,-1.021405182655144e-13,1.3112801177368952e-18
5100000,0.0038380246802800634,12.499981567200487,-8.681944052568724e-14,-1.021405182655144e-13,1.3241295955718046e-18
5150000,0.00383922746979189,12.499981389040926,-8.681944052568724e-14,-1.021405182655144e-13,1.3369790655823842e-18
5200000,0.0038403746200862065,12.499981210897829,-8.681944052568724e-14,-1.021405182655144e-13,1.3498285283376127e-18
5250000,0.003841468805139415,12.499981032771203,-8.681944052568724e-14,-1.021405182655144e-13,1.3626779841012987e-18
5300000,0.0038425125811114885,12.499980854661048,-8.681944052568724e-14,-1.021405182655144e-13,1.3755274333488625e-18
5350000,0.0038435083718516387,12.49998067656737,-8.681944052568724e-14,-1.021405182655144e-13,1.3883768765460021e-18
5400000,0.003844458472963298,12.499980498490169,-8.659739592076221e-14,-1.021405182655144e-13,1.4012263139502602e-18
5450000,0.0038453650897224594,12.499980320429449,-8.681944052568724e-14,-1.021405182655144e-13,1.4140757460754046e-18
5500000,0.003846230304049896,12.49998014238521,-8.681944052568724e-14,-1.021405182655144e-13,1.4269251732493314e-18
5550000,0.0038470561139319673,12.499979964357456,-8.681944052568724e-14,-1.021405182655144e-13,1.4397745957711545e-18
5600000,0.0038478444117738203,12.49997978634619,-8.681944052568724e-14,-1.021405182655144e-13,1.452624013961669e-18
5650000,0.0038485969990037392,12.49997960835141,-8.681944052568724e-14,-1.021405182655144e-13,1.4654734279769052e-18
5700000,0.003849315587376303,12.499979430373122,-8.681944052568724e-14,-1.021405182655144e-13,1.4783228383310389e-18
5750000,0.0038500018232831574,12.499979252411324,-8.659739592076221e-14,-1.021405182655144e-13,1.4911722451966468e-18
5800000,0.0038506572496181924,12.499979074466019,-8.681944052568724e-14,-1.021405182655144e-13,1.504021648828059e-18
5850000,0.003851283353421438,12.499978896537208,-8.681944052568724e-14,-1.021405182655144e-13,1.5168710494849972e-18
5900000,0.0038518815424260495,12.49997871862489,-8.659739592076221e-14,-1.021405182655144e-13,1.52972044741072e-18
5950000,0.003852453161297327,12.499978540729069,-8.681944052568724e-14,-1.021405182655144e-13,1.5425698428481356e-18
6000000,0.003852999488149334,12.499978362849744,-8.681944052568724e-14,-1.021405182655144e-13,1.5554192358884205e-18
6050000,0.0038535217388941667,12.499978184986915,-8.681944052568724e-14,-1.021405182655144e-13,1.568268626873822e-18
6100000,0.0038540210641952143,12.499978007140584,-8.681944052568724e-14,-1.021405182655144e-13,1.5811180159404132e-18
6150000,0.0038544985697078556,12.499977829310751,-8.681944052568724e-14,-1.021405182655144e-13,1.593967403209799e-18
6200000,0.003854955310291125,12.499977651497415,-8.659739592076221e-14,-1.021405182655144e-13,1.6068167888619031e-18
6250000,0.0038553922780031956,12.499977473700579,-8.659739592076221e-14,-1.021405182655144e-13,1.61966617317635e-18
6300000,0.003855810422789676,12.49997729592024,-8.681944052568724e-14,-1.021405182655144e-13,1.632515556275334e-18
6350000,0.003856210651686056,12.499977118156401,-8.659739592076221e-14,-1.021405182655144e-13,1.6453649381850427e-18
6400000,0.0038565938167134353,12.499976940409061,-8.681944052568724e-14,-1.021405182655144e-13,1.658214319185896e-18
6450000,0.0038569607425442735,12.499976762678221,-8.681944052568724e-14,-1.0191847366058937e-13,1.6710636994742747e-18
6500000,0.003857312219371325,12.499976584963878,-8.681944052568724e-14,-1.021405182655144e-13,1.6839130789946267e-18
6550000,0.003857648988670708,12.499976407266034,-8.681944052568724e-14,-1.021405182655144e-13,1.69676245789825e-18
6600000,0.003857971744796305,12.49997622958469,-8.659739592076221e-14,-1.0191847366058937e-13,1.7096118363933204e-18
6650000,0.003858281171330149,12.499976051919843,-8.681944052568724e-14,-1.021405182655144e-13,1.7224612146394071e-18
6700000,0.003858577909267957,12.499975874271493,-8.681944052568724e-14,-1.021405182655144e-13,1.7353105925890002e-18
6750000,0.0038588625662224025,12.499975696639641,-8.681944052568724e-14,-1.021405182655144e-13,1.7481599704800953e-18
6800000,0.0038591357184664396,12.499975519024286,-8.659739592076221e-14,-1.0191847366058937e-13,1.7610093483479194e-18
6850000,0.003859397910991036,12.499975341425426,-8.681944052568724e-14,-1.021405182655144e-13,1.7738587262622624e-18
6900000,0.0038596496944941177,12.499975163843061,-8.681944052568724e-14,-1.021405182655144e-13,1.7867081042079238e-18
6950000,0.003859891552140453,12.499974986277191,-8.659739592076221e-14,-1.021405182655144e-13,1.799557482484213e-18
7000000,0.003860123964602915,12.499974808727815,-8.681944052568724e-14,-1.021405182655144e-13,1.8124068610039297e-18
7050000,0.0038603473891756575,12.499974631194934,-8.659739592076221e-14,-1.021405182655144e-13,1.8252562398615e-18
7100000,0.0038605622588370036,12.499974453678545,-8.681944052568724e-14,-1.021405182655144e-13,1.838105619222696e-18
7150000,0.0038607689843969833,12.499974276178648,-8.659739592076221e-14,-1.021405182655144e-13,1.8509549990958206e-18
7200000,0.0038609679491158474,12.499974098695242,-8.659739592076221e-14,-1.021405182655144e-13,1.8638043796347335e-18
7250000,0.0038611595308254303,12.499973921228326,-8.659739592076221e-14,-1.021405182655144e-13,1.8766537608086274e-18
7300000,0.003861344087417124,12.4999737437779,-8.681944052568724e-14,-1.021405182655144e-13,1.889503142630784e-18
7350000,0.0038615219451085207,12.499973566343963,-8.659739592076221e-14,-1.021405182655144e-13,1.9023525252924276e-18
7400000,0.0038616934342337417,12.499973388926513,-8.659739592076221e-14,-1.0236256287043943e-13,1.9152019087456084e-18
7450000,0.003861858869225043,12.49997321152555,-8.681944052568724e-14,-1.0191847366058937e-13,1.9280512930390015e-18
7500000,0.003862018525525032,12.499973034141073,-8.659739592076221e-14,-1.021405182655144e-13,1.94090067830024e-18
7550000,0.003862172687204852,12.49997285677308,-8.681944052568724e-14,-1.021405182655144e-13,1.9537500644954065e-18
7600000,0.0038623216168460223,12.499972679421571,-8.659739592076221e-14,-1.021405182655144e-13,1.9665994518223327e-18
7650000,0.003862465564406288,12.499972502086544,-8.659739592076221e-14,-1.0191847366058937e-13,1.9794488401222868e-18
7700000,0.003862604776083889,12.499972324767999,-8.659739592076221e-14,-1.021405182655144e-13,1.992298229436893e-18
7750000,0.003862739468097511,12.499972147465932,-8.659739592076221e-14,-1.021405182655144e-13,2.005147619905427e-18
7800000,0.0038628698696138823,12.499971970180345,-8.659739592076221e-14,-1.0191847366058937e-13,2.0179970115524545e-18
7850000,0.003862996183997445,12.499971792911238,-8.659739592076221e-14,-1.021405182655144e-13,2.030846404356729e-18
7900000,0.0038631186011721147,12.499971615658605,-8.681944052568724e-14,-1.021405182655144e-13,2.0436957984434666e-18
7950000,0.0038632373113043897,12.499971438422449,-8.681944052568724e-14,-1.021405182655144e-13,2.056545193726949e-18
8000000,0.0038633524923916526,12.499971261202766,-8.659739592076221e-14,-1.021405182655144e-13,2.069394590333186e-18
8050000,0.0038634643177424054,12.499971083999558,-8.659739592076221e-14,-1.021405182655144e-13,2.0822439882070623e-18
8100000,0.003863572945371835,12.499970906812822,-8.659739592076221e-14,-1.021405182655144e-13,2.0950933875385948e-18
8150000,0.003863678521592926,12.499970729642556,-8.681944052568724e-14,-1.021405182655144e-13,2.107942788231621e-18
8200000,0.0038637812136191447,12.499970552488758,-8.681944052568724e-14,-1.021405182655144e-13,2.1207921902792727e-18
8250000,0.003863881143223005,12.49997037535143,-8.659739592076221e-14,-1.0191847366058937e-13,2.133641593725071e-18
8300000,0.0038639784488272767,12.499970198230567,-8.681944052568724e-14,-1.021405182655144e-13,2.14649099861553e-18
8350000,0.0038640732459026997,12.49997002112617,-8.659739592076221e-14,-1.021405182655144e-13,2.159340404945779e-18
