Timestep (s),Sum Voltage (V),Carry Out Voltage (V),Sum Error Rate (Dimless),Carry Out Error Rate (Dimless),Energy Dissipation (J)
0,0.00018585113844837308,12.499999820455539,-1.0080825063596421e-13,-1.0236256287043943e-13,1.2997860548515444e-16
50000,0.00036273584969483526,12.499999640911879,-1.0014211682118912e-13,-1.021405182655144e-13,1.3096272277710925e-16
100000,0.0005310883659538034,12.499999461369784,-9.9253938401489e-14,-1.0236256287043943e-13,1.3192100265739621e-16
150000,0.000691321753834172,12.49999928182998,-9.880984919163893e-14,-1.0236256287043943e-13,1.328547266644017e-16
200000,0.0008438289524064206,12.499999102293158,-9.814371537686384e-14,-1.021405182655144e-13,1.3376510175167362e-16
250000,0.000988983747285987,12.499998922759975,-9.769962616701378e-14,-1.021405182655144e-13,1.346532651055958e-16
300000,0.0011271417569216355,12.499998743231057,-9.703349235223868e-14,-1.021405182655144e-13,1.3552028861514465e-16
350000,0.0012586412809160261,12.499998563707,-9.658940314238862e-14,-1.0236256287043943e-13,1.3636718302240987e-16
400000,0.0013838041816804734,12.499998384188373,-9.614531393253856e-14,-1.0236256287043943e-13,1.3719490177820141e-16
450000,0.0015029366743237978,12.499998204675716,-9.547918011776346e-14,-1.021405182655144e-13,1.3800434462653383e-16
500000,0.0016163301286227175,12.49999802516954,-9.50350909079134e-14,-1.0236256287043943e-13,1.3879636093870037e-16
550000,0.0017242617506377411,12.499997845670338,-9.459100169806334e-14,-1.0236256287043943e-13,1.3957175281692824e-16
600000,0.0018269953032407167,12.499997666178574,-9.414691248821327e-14,-1.021405182655144e-13,1.40331277984482e-16
650000,0.001924781755567219,12.499997486694692,-9.414691248821327e-14,-1.0236256287043943e-13,1.4107565247901476e-16
700000,0.002017859905107162,12.499997307219113,-9.370282327836321e-14,-1.0236256287043943e-13,1.4180555316418397e-16
750000,0.0021064569875223894,12.49999712775224,-9.348077867343818e-14,-1.021405182655144e-13,1.4252162007229338e-16
800000,0.0021907892315835118,12.499996948294452,-9.303668946358812e-14,-1.021405182655144e-13,1.4322445859176532e-16
850000,0.002271062388591423,12.499996768846117,-9.281464485866309e-14,-1.0236256287043943e-13,1.4391464150987963e-16
900000,0.0023474722578214918,12.49999658940758,-9.237055564881302e-14,-1.0236256287043943e-13,1.445927109219113e-16
950000,0.002420205157782331,12.49999640997917,-9.214851104388799e-14,-1.0236256287043943e-13,1.4525918001625102e-16
1000000,0.0024894384057718845,12.499996230561202,-9.192646643896296e-14,-1.021405182655144e-13,1.4591453474455548e-16
1050000,0.002555340722317343,12.499996051153973,-9.14823772291129e-14,-1.021405182655144e-13,1.4655923538505698e-16
1100000,0.0026180727048320048,12.499995871757768,-9.126033262418787e-14,-1.0236256287043943e-13,1.4719371800646966e-16
1150000,0.0026777871476572294,12.499995692372858,-9.126033262418787e-14,-1.0236256287043943e-13,1.4781839584019341e-16
1200000,0.0027346294928958115,12.499995512999499,-9.103828801926284e-14,-1.021405182655144e-13,1.4843366056618207e-16
1250000,0.002788738143763885,12.499995333637937,-9.059419880941277e-14,-1.021405182655144e-13,1.4903988351949324e-16
1300000,0.0028402448140819017,12.499995154288406,-9.037215420448774e-14,-1.021405182655144e-13,1.4963741682232352e-16
1350000,0.0028892748803982723,12.499994974951127,-9.037215420448774e-14,-1.0236256287043943e-13,1.5022659444694712e-16
1400000,0.002935947649047628,12.49999479562631,-9.015010959956271e-14,-1.0236256287043943e-13,1.5080773321425554e-16
1450000,0.0029803766551599995,12.49999461631416,-9.015010959956271e-14,-1.021405182655144e-13,1.5138113373195527e-16
1500000,0.0030226699817880245,12.499994437014864,-8.970602038971265e-14,-1.021405182655144e-13,1.5194708127671208e-16
1550000,0.003062930473288455,12.499994257728606,-8.948397578478762e-14,-1.021405182655144e-13,1.5250584662423388e-16
1600000,0.0031012560387826435,12.499994078455558,-8.948397578478762e-14,-1.021405182655144e-13,1.5305768682978882e-16
1650000,0.0031377398425014727,12.499993899195886,-8.948397578478762e-14,-1.021405182655144e-13,1.53602845963733e-16
1700000,0.0031724705675039264,12.499993719949746,-8.926193117986259e-14,-1.021405182655144e-13,1.5414155580355572e-16
1750000,0.003205532612554673,12.499993540717288,-8.926193117986259e-14,-1.021405182655144e-13,1.5467403648655875e-16
1800000,0.0032370063232800552,12.499993361498653,-8.903988657493755e-14,-1.0236256287043943e-13,1.5520049712455674e-16
1850000,0.003266968149149463,12.499993182293977,-8.903988657493755e-14,-1.021405182655144e-13,1.5572113638392636e-16
1900000,0.0032954908668783177,12.49999300310339,-8.881784197001252e-14,-1.021405182655144e-13,1.5623614303241493e-16
1950000,0.0033226437540746718,12.49999282392701,-8.881784197001252e-14,-1.021405182655144e-13,1.5674569645543269e-16
2000000,0.0033484927353156354,12.499992644764959,-8.859579736508749e-14,-1.021405182655144e-13,1.5724996714337728e-16
2050000,0.003373100569868219,12.499992465617343,-8.837375276016246e-14,-1.021405182655144e-13,1.5774911715161066e-16
2100000,0.0033965269847442497,12.49999228648427,-8.859579736508749e-14,-1.021405182655144e-13,1.5824330053528416e-16
2150000,0.003418828828451983,12.49999210736584,-8.837375276016246e-14,-1.021405182655144e-13,1.5873266376014843e-16
2200000,0.003440060227500638,12.499991928262146,-8.815170815523743e-14,-1.0236256287043943e-13,1.5921734609062193e-16
2250000,0.003460272676124732,12.499991749173281,-8.837375276016246e-14,-1.021405182655144e-13,1.5969747995730103e-16
2300000,0.0034795152097816793,12.499991570099331,-8.837375276016246e-14,-1.0236256287043943e-13,1.6017319130376485e-16
2350000,0.003497834492363311,12.499991391040377,-8.815170815523743e-14,-1.021405182655144e-13,1.606445999156411e-16
2400000,0.0035152749594094352,12.499991211996496,-8.79296635503124e-14,-1.021405182655144e-13,1.6111181973111593e-16
2450000,0.0035318788829766423,12.499991032967765,-8.815170815523743e-14,-1.021405182655144e-13,1.6157495913570831e-16
2500000,0.003547686503155763,12.499990853954253,-8.79296635503124e-14,-1.021405182655144e-13,1.6203412124075565e-16
2550000,0.003562736125243586,12.499990674956027,-8.770761894538737e-14,-1.021405182655144e-13,1.62489404147539e-16
2600000,0.003577064231360938,12.499990495973153,-8.770761894538737e-14,-1.021405182655144e-13,1.6294090119722378e-16
2650000,0.003590705518765878,12.499990317005688,-8.770761894538737e-14,-1.0236256287043943e-13,1.633887012081469e-16
2700000,0.0036036930187473247,12.499990138053692,-8.770761894538737e-14,-1.0236256287043943e-13,1.6383288870037568e-16
2750000,0.0036160581914875317,12.499989959117219,-8.770761894538737e-14,-1.021405182655144e-13,1.6427354410851466e-16
2800000,0.00362783097374597,12.499989780196323,-8.748557434046234e-14,-1.0236256287043943e-13,1.6471074398385272e-16
2850000,0.0036390398477271447,12.499989601291052,-8.748557434046234e-14,-1.021405182655144e-13,1.6514456118593416e-16
2900000,0.0036497119411191582,12.499989422401452,-8.770761894538737e-14,-1.021405182655144e-13,1.6557506506409058e-16
2950000,0.003659873078476168,12.499989243527569,-8.748557434046234e-14,-1.021405182655144e-13,1.6600232162989481e-16
3000000,0.003669547833314288,12.499989064669446,-8.748557434046234e-14,-1.0236256287043943e-13,1.664263937208629e-16
3050000,0.0036787595876052155,12.499988885827124,-8.748557434046234e-14,-1.0236256287043943e-13,1.6684734115566318e-16
3100000,0.0036875306155841896,12.49998870700064,-8.748557434046234e-14,-1.021405182655144e-13,1.6726522088151836e-16
3150000,0.0036958821124128197,12.49998852819003,-8.704148513061227e-14,-1.0236256287043943e-13,1.676800871141918e-16
3200000,0.0037038342598731747,12.49998834939533,-8.72635297355373e-14,-1.021405182655144e-13,1.6809199147079982e-16
3250000,0.003711406260447916,12.499988170616573,-8.704148513061227e-14,-1.021405182655144e-13,1.6850098309621952e-16
3300000,0.003718616399141066,12.49998799185379,-8.72635297355373e-14,-1.021405182655144e-13,1.6890710878283362e-16
3350000,0.003725482073168517,12.49998781310701,-8.72635297355373e-14,-1.021405182655144e-13,1.693104130844881e-16
3400000,0.003732019848618794,12.499987634376263,-8.704148513061227e-14,-1.0236256287043943e-13,1.6971093842468858e-16
3450000,0.003738245490969513,12.499987455661573,-8.72635297355373e-14,-1.0236256287043943e-13,1.7010872519950107e-16
3500000,0.0037441740134099514,12.499987276962967,-8.72635297355373e-14,-1.021405182655144e-13,1.705038118752014e-16
3550000,0.00374981970441802,12.49998709828047,-8.704148513061227e-14,-1.021405182655144e-13,1.7089623508123082e-16
3600000,0.0037551961684811003,12.499986919614106,-8.681944052568724e-14,-1.021405182655144e-13,1.7128602969847857e-16
3650000,0.0037603163428203664,12.499986740963893,-8.704148513061227e-14,-1.0191847366058937e-13,1.7167322894324627e-16
3700000,0.0037651925620212994,12.499986562329852,-8.704148513061227e-14,-1.021405182655144e-13,1.7205786444697768e-16
3750000,0.003769836550054859,12.499986383712004,-8.704148513061227e-14,-1.021405182655144e-13,1.724399663322028e-16
3800000,0.0037742594798537486,12.49998620511037,-8.72635297355373e-14,-1.021405182655144e-13,1.728195632847439e-16
3850000,0.0037784719707029376,12.499986026524963,-8.72635297355373e-14,-1.0236256287043943e-13,1.7319668262225413e-16
3900000,0.003782484150057069,12.499985847955802,-8.704148513061227e-14,-1.021405182655144e-13,1.735713503595205e-16
3950000,0.0037863056486326496,12.499985669402902,-8.704148513061227e-14,-1.0236256287043943e-13,1.7394359127051262e-16
4000000,0.003789945633488152,12.499985490866278,-8.72635297355373e-14,-1.021405182655144e-13,1.743134289475432e-16
4050000,0.003793412829774592,12.499985312345945,-8.704148513061227e-14,-1.021405182655144e-13,1.7468088585726146e-16
4100000,0.00379671555578079,12.499985133841916,-8.681944052568724e-14,-1.021405182655144e-13,1.7504598339415474e-16
4150000,0.003799861708791772,12.499984955354204,-8.704148513061227e-14,-1.021405182655144e-13,1.754087419315419e-16
4200000,0.003802858814044021,12.49998477688282,-8.681944052568724e-14,-1.021405182655144e-13,1.7576918086972984e-16
4250000,0.0038057140464630213,12.499984598427778,-8.681944052568724e-14,-1.021405182655144e-13,1.761273186820248e-16
4300000,0.003808434233657912,12.499984419989085,-8.681944052568724e-14,-1.021405182655144e-13,1.7648317295861346e-16
4350000,0.0038110258472875106,12.499984241566754,-8.681944052568724e-14,-1.021405182655144e-13,1.7683676044838023e-16
4400000,0.0038134950876332545,12.499984063160792,-8.704148513061227e-14,-1.021405182655144e-13,1.7718809709814129e-16
4450000,0.00381584784114168,12.49998388477121,-8.681944052568724e-14,-1.0236256287043943e-13,1.775371980907072e-16
4500000,0.0038180897008665868,12.499983706398016,-8.704148513061227e-14,-1.021405182655144e-13,1.7788407788070476e-16
4550000,0.0038202259936488876,12.499983528041218,-8.704148513061227e-14,-1.0236256287043943e-13,1.782287502286906e-16
4600000,0.0038222618041590865,12.499983349700825,-8.681944052568724e-14,-1.0236256287043943e-13,1.7857122823362843e-16
4650000,0.0038242019579178303,12.499983171376842,-8.681944052568724e-14,-1.021405182655144e-13,1.7891152436394656e-16
4700000,0.003826051062433255,12.499982993069278,-8.681944052568724e-14,-1.021405182655144e-13,1.7924965048681432e-16
4750000,0.0038278134893809587,12.499982814778136,-8.681944052568724e-14,-1.021405182655144e-13,1.7958561789630925e-16
4800000,0.003829493403663682,12.499982636503425,-8.681944052568724e-14,-1.021405182655144e-13,1.7991943734004186e-16
4850000,0.003831094771219711,12.49998245824515,-8.681944052568724e-14,-1.021405182655144e-13,1.802511190444375e-16
4900000,0.003832621379313785,12.499982280003314,-8.681944052568724e-14,-1.021405182655144e-13,1.8058067273885268e-16
4950000,0.003834076813465002,12.499982101777926,-8.704148513061227e-14,-1.021405182655144e-13,1.8090810767879349e-16
5000000,0.003835464495649709,12.499981923568987,-8.681944052568724e-14,-1.021405182655144e-13,1.8123343266753306e-16
5050000,0.0038367876822846974,12.499981745376504,-8.681944052568724e-14,-1.021405182655144e-13,1.8155665607697756e-16
5100000,0.0038380494778856604,12.499981567200479,-8.681944052568724e-14,-1.021405182655144e-13,1.818777858674198e-16
5150000,0.0038392528350927055,12.499981389040917,-8.659739592076221e-14,-1.021405182655144e-13,1.8219682960647098e-16
5200000,0.0038404005584843194,12.49998121089782,-8.681944052568724e-14,-1.021405182655144e-13,1.8251379448693832e-16
5250000,0.003841495328917957,12.499981032771194,-8.681944052568724e-14,-1.021405182655144e-13,1.8282868734376143e-16
5300000,0.0038425396875411857,12.49998085466104,-8.681944052568724e-14,-1.021405182655144e-13,1.8314151467030325e-16
5350000,0.0038435360645966902,12.499980676567361,-8.681944052568724e-14,-1.021405182655144e-13,1.8345228263380315e-16
5400000,0.003844486753045007,12.49998049849016,-8.681944052568724e-14,-1.021405182655144e-13,1.8376099709001464e-16
5450000,0.0038453939533412912,12.499980320429438,-8.681944052568724e-14,-1.0236256287043943e-13,1.8406766359708772e-16
5500000,0.003846259759588563,12.4999801423852,-8.681944052568724e-14,-1.021405182655144e-13,1.843722874288317e-16
5550000,0.0038470861703485595,12.499979964357445,-8.659739592076221e-14,-1.021405182655144e-13,1.8467487358741122e-16
5600000,0.003847875077743721,12.499979786346177,-8.681944052568724e-14,-1.0236256287043943e-13,1.8497542681522782e-16
5650000,0.0038486282725947265,12.4999796083514,-8.681944052568724e-14,-1.0191847366058937e-13,1.8527395160653498e-16
5700000,0.0038493474787253744,12.49997943037311,-8.659739592076221e-14,-1.0191847366058937e-13,1.855704522179234e-16
5750000,0.003850034328868134,12.499979252411311,-8.659739592076221e-14,-1.021405182655144e-13,1.8586493267889184e-16
5800000,0.003850690378590413,12.499979074466006,-8.659739592076221e-14,-1.0191847366058937e-13,1.861573968014787e-16
5850000,0.0038513171027737495,12.499978896537195,-8.681944052568724e-14,-1.021405182655144e-13,1.8644784818965587e-16
5900000,0.003851915929809582,12.499978718624877,-8.681944052568724e-14,-1.021405182655144e-13,1.8673629024793206e-16
5950000,0.0038524881889254064,12.499978540729055,-8.681944052568724e-14,-1.021405182655144e-13,1.8702272619006817e-16
6000000,0.003853035150320106,12.49997836284973,-8.681944052568724e-14,-1.021405182655144e-13,1.8730715904684915e-16
6050000,0.0038535580458001393,12.499978184986901,-8.681944052568724e-14,-1.021405182655144e-13,1.8758959167353445e-16
6100000,0.0038540580157703326,12.49997800714057,-8.681944052568724e-14,-1.0236256287043943e-13,1.878700267572914e-16
6150000,0.0038545361760510396,12.499977829310737,-8.681944052568724e-14,-1.021405182655144e-13,1.8814846682371156e-16
6200000,0.0038549935716486834,12.499977651497403,-8.681944052568724e-14,-1.021405182655144e-13,1.8842491424348618e-16
6250000,0.0038554311939113877,12.499977473700566,-8.681944052568724e-14,-1.021405182655144e-13,1.886993712384547e-16
6300000,0.0038558500032499082,12.499977295920228,-8.659739592076221e-14,-1.021405182655144e-13,1.8897183988732185e-16
6350000,0.003856250897021219,12.499977118156389,-8.681944052568724e-14,-1.021405182655144e-13,1.892423221313872e-16
6400000,0.003856634734339777,12.499976940409049,-8.681944052568724e-14,-1.0191847366058937e-13,1.8951081977952075e-16
6450000,0.003857002337791201,12.499976762678207,-8.681944052568724e-14,-1.021405182655144e-13,1.897773345132415e-16
6500000,0.0038573544924394927,12.499976584963864,-8.681944052568724e-14,-1.021405182655144e-13,1.9004186755682842e-16
6550000,0.0038576919404909016,12.49997640726602,-8.681944052568724e-14,-1.021405182655144e-13,1.903044191463034e-16
6600000,0.0038580153867692857,12.499976229584675,-8.681944052568724e-14,-1.021405182655144e-13,1.9056499073876271e-16
6650000,0.0038583255000755536,12.499976051919827,-8.659739592076221e-14,-1.021405182655144e-13,1.9082358366870052e-16
6700000,0.0038586229267971736,12.499975874271477,-8.681944052568724e-14,-1.021405182655144e-13,1.9108019915333283e-16
6750000,0.003858908265747435,12.499975696639625,-8.659739592076221e-14,-1.021405182655144e-13,1.9133483829755604e-16
6800000,0.0038591821123305633,12.49997551902427,-8.659739592076221e-14,-1.021405182655144e-13,1.9158750209821116e-16
6850000,0.003859445008976655,12.49997534142541,-8.681944052568724e-14,-1.021405182655144e-13,1.9183819144853409e-16
6900000,0.0038596974958231027,12.499975163843045,-8.681944052568724e-14,-1.021405182655144e-13,1.9208690714175716e-16
6950000,0.0038599400615335513,12.499974986277175,-8.681944052568724e-14,-1.021405182655144e-13,1.9233364987492975e-16
7000000,0.003860173184797163,12.4999748087278,-8.659739592076221e-14,-1.021405182655144e-13,1.925784202521212e-16
7050000,0.0038603973176629487,12.499974631194918,-8.659739592076221e-14,-1.021405182655144e-13,1.9282121878762087e-16
7100000,0.00386061288873757,12.49997445367853,-8.659739592076221e-14,-1.021405182655144e-13,1.9306204590886622e-16
7150000,0.003860820319476486,12.499974276178632,-8.681944052568724e-14,-1.021405182655144e-13,1.9330090195919428e-16
7200000,0.0038610200025048086,12.499974098695226,-8.659739592076221e-14,-1.021405182655144e-13,1.9353778720048163e-16
7250000,0.003861212307744881,12.49997392122831,-8.681944052568724e-14,-1.021405182655144e-13,1.9377270181566227e-16
7300000,0.003861397576161417,12.499973743777884,-8.681944052568724e-14,-1.0236256287043943e-13,1.940056459110402e-16
7350000,0.003861576158400056,12.499973566343947,-8.681944052568724e-14,-1.021405182655144e-13,1.9423661951832392e-16
7400000,0.0038617483765120766,12.499973388926497,-8.681944052568724e-14,-1.021405182655144e-13,1.94465622597007e-16
7450000,0.0038619145382753563,12.499973211525534,-8.659739592076221e-14,-1.021405182655144e-13,1.9469265503622097e-16
7500000,0.003862074925591245,12.499973034141057,-8.659739592076221e-14,-1.021405182655144e-13,1.9491771665681777e-16
7550000,0.003862229821698365,12.499972856773065,-8.681944052568724e-14,-1.021405182655144e-13,1.9514080721303292e-16
7600000,0.0038623794869736276,12.499972679421555,-8.681944052568724e-14,-1.0191847366058937e-13,1.9536192639450816e-16
7650000,0.0038625241705607534,12.499972502086528,-8.659739592076221e-14,-1.0191847366058937e-13,1.9558107382797917e-16
7700000,0.0038626641253594724,12.499972324767983,-8.681944052568724e-14,-1.021405182655144e-13,1.9579824907890038e-16
7750000,0.003862799562721396,12.499972147465916,-8.681944052568724e-14,-1.021405182655144e-13,1.9601345165341489e-16
7800000,0.0038629307117595117,12.49997197018033,-8.681944052568724e-14,-1.021405182655144e-13,1.9622668099985318e-16
7850000,0.003863057770049391,12.499971792911222,-8.681944052568724e-14,-1.021405182655144e-13,1.964379365105247e-16
7900000,0.0038631809451762297,12.49997161565859,-8.659739592076221e-14,-1.021405182655144e-13,1.966472175232825e-16
7950000,0.0038633004060511355,12.499971438422433,-8.681944052568724e-14,-1.0191847366058937e-13,1.9685452332356986e-16
8000000,0.0038634163413811718,12.49997126120275,-8.659739592076221e-14,-1.021405182655144e-13,1.9705985314580336e-16
8050000,0.003863528920374366,12.499971083999542,-8.637535131583718e-14,-1.021405182655144e-13,1.972632061753706e-16
8100000,0.0038636383047321483,12.499970906812806,-8.659739592076221e-14,-1.021405182655144e-13,1.9746458155053423e-16
8150000,0.0038637446478358367,12.49997072964254,-8.659739592076221e-14,-1.021405182655144e-13,1.9766397836426757e-16
8200000,0.0038638480983058006,12.499970552488742,-8.681944052568724e-14,-1.021405182655144e-13,1.978613956663748e-16
8250000,0.003863948788671614,12.499970375351413,-8.659739592076221e-14,-1.021405182655144e-13,1.9805683246552358e-16
8300000,0.0038640468594500314,12.499970198230551,-8.681944052568724e-14,-1.021405182655144e-13,1.9825028773144628e-16
8350000,0.0038641424242721423,12.499970021126154,-8.659739592076221e-14,-1.021405182655144e-13,1.9844176039745626e-16
