Timestep (s),Sum Voltage (V),Carry Out Voltage (V),Sum Error Rate (Dimless),Carry Out Error Rate (Dimless),Energy Dissipation (J)
0,0.00018585113844837308,12.499999865151944,-1.0080825063596421e-13,-1.021405182655144e-13,1.288353157956089e-20
50000,0.00036369233885921346,12.499999730304499,-9.992007221626409e-14,-1.021405182655144e-13,2.5765316428809836e-20
100000,0.0005329508210828863,12.499999595458236,-9.9253938401489e-14,-1.0236256287043943e-13,3.864546105069753e-20
150000,0.0006940420993840884,12.4999994606137,-9.85878045867139e-14,-1.0236256287043943e-13,5.152405534930839e-20
200000,0.0008473614418035942,12.499999325771412,-9.814371537686384e-14,-1.021405182655144e-13,6.440118378048267e-20
250000,0.0009932848737794692,12.499999190931867,-9.747758156208874e-14,-1.021405182655144e-13,7.727692592677353e-20
300000,0.0011321701064990496,12.49999905609553,-9.703349235223868e-14,-1.0236256287043943e-13,9.015135664015045e-20
350000,0.0012643574562018183,12.499998921262854,-9.636735853746359e-14,-1.021405182655144e-13,1.0302454651224422e-19
400000,0.0013901706994964595,12.499998786434263,-9.614531393253856e-14,-1.021405182655144e-13,1.1589656173211196e-19
450000,0.0015099178696494288,12.499998651610163,-9.547918011776346e-14,-1.021405182655144e-13,1.2876746517263374e-19
500000,0.0016238920531243455,12.499998516790939,-9.50350909079134e-14,-1.021405182655144e-13,1.416373156025873e-19
550000,0.00173237209199619,12.499998381976958,-9.481304630298837e-14,-1.021405182655144e-13,1.5450616882314018e-19
600000,0.0018356233170956733,12.499998247168572,-9.414691248821327e-14,-1.021405182655144e-13,1.6737407729969112e-19
650000,0.0019338981845814025,12.49999811236611,-9.392486788328824e-14,-1.021405182655144e-13,1.8024109060951313e-19
700000,0.0020274369155363616,12.499997977569894,-9.348077867343818e-14,-1.021405182655144e-13,1.9310725551251668e-19
750000,0.0021164680837864928,12.499997842780223,-9.325873406851315e-14,-1.0236256287043943e-13,2.059726162790442e-19
800000,0.002201209188230334,12.499997707997384,-9.303668946358812e-14,-1.021405182655144e-13,2.1883721457108603e-19
850000,0.0022818672078660307,12.49999757322165,-9.259260025373806e-14,-1.021405182655144e-13,2.3170108985416784e-19
900000,0.002358639106450921,12.499997438453283,-9.237055564881302e-14,-1.021405182655144e-13,2.445642794464677e-19
950000,0.0024317122892643897,12.499997303692528,-9.192646643896296e-14,-1.021405182655144e-13,2.574268186927156e-19
1000000,0.0025012651297636034,12.499997168939622,-9.170442183403793e-14,-1.0236256287043943e-13,2.7028874085213766e-19
1050000,0.002567467343033512,12.49999703419479,-9.14823772291129e-14,-1.0236256287043943e-13,2.8315007759903787e-19
1100000,0.00263048046666109,12.499996899458242,-9.126033262418787e-14,-1.021405182655144e-13,2.9601085870587308e-19
1150000,0.0026904582298430037,12.499996764730186,-9.103828801926284e-14,-1.021405182655144e-13,3.088711124667087e-19
1200000,0.0027475469032360615,12.499996630010813,-9.08162434143378e-14,-1.021405182655144e-13,3.2173086576018925e-19
1250000,0.0028018857253172417,12.499996495300305,-9.08162434143378e-14,-1.021405182655144e-13,3.3459014392443544e-19
1300000,0.002853607181629369,12.49999636059884,-9.037215420448774e-14,-1.0236256287043943e-13,3.4744897094401747e-19
1350000,0.0029028373760669104,12.499996225906582,-9.037215420448774e-14,-1.0236256287043943e-13,3.603073696918209e-19
1400000,0.002949696333461997,12.499996091223693,-9.015010959956271e-14,-1.021405182655144e-13,3.731653616554758e-19
1450000,0.002994298265914906,12.499995956550322,-8.992806499463768e-14,-1.021405182655144e-13,3.8602296736085294e-19
1500000,0.003036751893586582,12.499995821886612,-8.970602038971265e-14,-1.021405182655144e-13,3.9888020609350315e-19
1550000,0.003077160669666359,12.499995687232701,-8.948397578478762e-14,-1.021405182655144e-13,4.1173709630201914e-19
1600000,0.003115623071472456,12.499995552588718,-8.926193117986259e-14,-1.021405182655144e-13,4.245936554798577e-19
1650000,0.003152232816863228,12.499995417954787,-8.926193117986259e-14,-1.0236256287043943e-13,4.374499000866449e-19
1700000,0.003187079110263087,12.499995283331028,-8.948397578478762e-14,-1.021405182655144e-13,4.503058458783452e-19
1750000,0.003220246856480759,12.49999514871755,-8.903988657493755e-14,-1.0236256287043943e-13,4.631615076731995e-19
1800000,0.0032518168583215226,12.499995014114461,-8.903988657493755e-14,-1.021405182655144e-13,4.760168996471445e-19
1850000,0.003281866035025251,12.499994879521863,-8.881784197001252e-14,-1.021405182655144e-13,4.888720352361465e-19
1900000,0.003310467587700528,12.499994744939851,-8.881784197001252e-14,-1.021405182655144e-13,5.017269271800572e-19
1950000,0.003337691201195014,12.499994610368518,-8.859579736508749e-14,-1.0236256287043943e-13,5.14581587454749e-19
2000000,0.0033636031932070933,12.49999447580795,-8.859579736508749e-14,-1.021405182655144e-13,5.274360276582456e-19
2050000,0.003388266686236219,12.499994341258232,-8.837375276016246e-14,-1.021405182655144e-13,5.402902585931507e-19
2100000,0.0034117417681670224,12.49999420671944,-8.837375276016246e-14,-1.021405182655144e-13,5.53144290706844e-19
2150000,0.0034340856276256927,12.499994072191654,-8.837375276016246e-14,-1.0236256287043943e-13,5.659981337536426e-19
2200000,0.0034553526952237697,12.499993937674944,-8.815170815523743e-14,-1.021405182655144e-13,5.788517971166621e-19
2250000,0.0034755947845154828,12.499993803169376,-8.815170815523743e-14,-1.021405182655144e-13,5.917052897337125e-19
2300000,0.0034948612168493984,12.499993668675016,-8.815170815523743e-14,-1.021405182655144e-13,6.045586199346018e-19
2350000,0.0035131989255001114,12.499993534191924,-8.815170815523743e-14,-1.021405182655144e-13,6.174117958129522e-19
2400000,0.0035306526087472644,12.49999339972016,-8.79296635503124e-14,-1.021405182655144e-13,6.302648248575501e-19
2450000,0.0035472647938838103,12.499993265259782,-8.79296635503124e-14,-1.021405182655144e-13,6.43117714293893e-19
2500000,0.0035630759728119757,12.49999313081084,-8.79296635503124e-14,-1.021405182655144e-13,6.559704710607031e-19
2550000,0.0035781246543735885,12.499992996373384,-8.770761894538737e-14,-1.021405182655144e-13,6.688231018016284e-19
2600000,0.0035924475420801897,12.499992861947465,-8.748557434046234e-14,-1.021405182655144e-13,6.816756125886126e-19
2650000,0.0036060795419440117,12.499992727533126,-8.770761894538737e-14,-1.021405182655144e-13,6.945280093765116e-19
2700000,0.0036190538858285673,12.499992593130411,-8.770761894538737e-14,-1.021405182655144e-13,7.073802977546216e-19
2750000,0.0036314022079958898,12.499992458739362,-8.748557434046234e-14,-1.021405182655144e-13,7.202324830371375e-19
2800000,0.0036431546250508405,12.499992324360015,-8.748557434046234e-14,-1.021405182655144e-13,7.330845703076043e-19
2850000,0.003654339798790433,12.49999218999241,-8.72635297355373e-14,-1.0191847366058937e-13,7.459365643941885e-19
2900000,0.003664985010649889,12.499992055636582,-8.72635297355373e-14,-1.021405182655144e-13,7.587884699795832e-19
2950000,0.0036751162251402935,12.499991921292565,-8.72635297355373e-14,-1.021405182655144e-13,7.716402914034332e-19
3000000,0.003684758169670812,12.499991786960392,-8.72635297355373e-14,-1.021405182655144e-13,7.844920326830912e-19
3050000,0.0036939343826172264,12.49999165264009,-8.748557434046234e-14,-1.021405182655144e-13,7.973436977851937e-19
3100000,0.003702667253935115,12.499991518331688,-8.704148513061227e-14,-1.021405182655144e-13,8.101952905828242e-19
3150000,0.0037109780997456737,12.499991384035217,-8.748557434046234e-14,-1.021405182655144e-13,8.230468145631397e-19
3200000,0.0037188872269827045,12.499991249750702,-8.72635297355373e-14,-1.021405182655144e-13,8.358982732253263e-19
3250000,0.0037264139552767037,12.499991115478165,-8.72635297355373e-14,-1.021405182655144e-13,8.487496695714363e-19
3300000,0.003733576669369536,12.499990981217632,-8.72635297355373e-14,-1.021405182655144e-13,8.6160100674106295e-19
3350000,0.0037403928876619,12.499990846969125,-8.704148513061227e-14,-1.021405182655144e-13,8.744522878359835e-19
3400000,0.0037468792537897863,12.499990712732664,-8.704148513061227e-14,-1.021405182655144e-13,8.873035155906412e-19
3450000,0.0037530516378433765,12.499990578508271,-8.704148513061227e-14,-1.0236256287043943e-13,9.001546925186041e-19
3500000,0.0037589251401072615,12.499990444295964,-8.704148513061227e-14,-1.0236256287043943e-13,9.13005821249445e-19
3550000,0.003764514126581797,12.499990310095761,-8.704148513061227e-14,-1.021405182655144e-13,9.258569041141717e-19
3600000,0.003769832288046812,12.49999017590768,-8.704148513061227e-14,-1.021405182655144e-13,9.387079434332472e-19
3650000,0.0037748926502241646,12.499990041731737,-8.704148513061227e-14,-1.021405182655144e-13,9.51558941299496e-19
3700000,0.003779707595513642,12.499989907567945,-8.704148513061227e-14,-1.021405182655144e-13,9.644098997989904e-19
3750000,0.0037842889300483853,12.499989773416322,-8.704148513061227e-14,-1.0236256287043943e-13,9.772608210150322e-19
3800000,0.0037886478986117592,12.499989639276881,-8.704148513061227e-14,-1.021405182655144e-13,9.901117066415103e-19
3850000,0.003792795178439109,12.499989505149635,-8.704148513061227e-14,-1.021405182655144e-13,1.0029625585626281e-18
3900000,0.0037967409596932587,12.499989371034596,-8.704148513061227e-14,-1.021405182655144e-13,1.0158133783600123e-18
3950000,0.0038004949230536424,12.499989236931777,-8.681944052568724e-14,-1.021405182655144e-13,1.028664167698806e-18
4000000,0.003804066292167722,12.499989102841187,-8.704148513061227e-14,-1.021405182655144e-13,1.041514928157076e-18
4050000,0.003807463859767027,12.499988968762839,-8.704148513061227e-14,-1.021405182655144e-13,1.0543656611249694e-18
4100000,0.003810695973785472,12.499988834696742,-8.681944052568724e-14,-1.021405182655144e-13,1.0672163681068736e-18
4150000,0.0038137705874679594,12.499988700642906,-8.704148513061227e-14,-1.021405182655144e-13,1.0800670501726246e-18
4200000,0.003816695275113452,12.49998856660134,-8.681944052568724e-14,-1.0236256287043943e-13,1.0929177088289197e-18
4250000,0.003819477249759773,12.499988432572053,-8.704148513061227e-14,-1.021405182655144e-13,1.1057683450727833e-18
4300000,0.0038221233633434987,12.499988298555051,-8.704148513061227e-14,-1.0236256287043943e-13,1.1186189602303458e-18
4350000,0.00382464015794662,12.499988164550343,-8.659739592076221e-14,-1.0191847366058937e-13,1.1314695553277782e-18
4400000,0.003827033854567244,12.499988030557937,-8.704148513061227e-14,-1.021405182655144e-13,1.1443201311377952e-18
4450000,0.0038293103549389717,12.499987896577839,-8.681944052568724e-14,-1.021405182655144e-13,1.1571706890845841e-18
4500000,0.0038314753124308026,12.499987762610054,-8.681944052568724e-14,-1.021405182655144e-13,1.1700212297769448e-18
4550000,0.003833534077941567,12.49998762865459,-8.681944052568724e-14,-1.0236256287043943e-13,1.1828717543135298e-18
4600000,0.0038354917635518636,12.499987494711453,-8.681944052568724e-14,-1.021405182655144e-13,1.1957222633301495e-18
4650000,0.0038373532179276928,12.499987360780647,-8.681944052568724e-14,-1.021405182655144e-13,1.2085727577760239e-18
4700000,0.0038391230844024814,12.499987226862178,-8.681944052568724e-14,-1.0236256287043943e-13,1.221423238304084e-18
4750000,0.0038408057603273238,12.49998709295605,-8.659739592076221e-14,-1.021405182655144e-13,1.2342737057516478e-18
4800000,0.00384240543847179,12.49998695906227,-8.681944052568724e-14,-1.0236256287043943e-13,1.2471241607813136e-18
4850000,0.00384392611071728,12.499986825180837,-8.659739592076221e-14,-1.021405182655144e-13,1.2599746040528203e-18
4900000,0.003845371569893561,12.49998669131176,-8.681944052568724e-14,-1.021405182655144e-13,1.2728250360944436e-18
4950000,0.0038467454445906607,12.49998655745504,-8.681944052568724e-14,-1.021405182655144e-13,1.2856754575502704e-18
5000000,0.003848051156581139,12.49998642361068,-8.681944052568724e-14,-1.021405182655144e-13,1.2985258690896796e-18
5050000,0.003849291994575265,12.499986289778686,-8.681944052568724e-14,-1.021405182655144e-13,1.3113762711986588e-18
5100000,0.0038504710763800644,12.499986155959059,-8.681944052568724e-14,-1.021405182655144e-13,1.3242266643397676e-18
5150000,0.0038515913753166277,12.499986022151802,-8.681944052568724e-14,-1.021405182655144e-13,1.3370770491163468e-18
5200000,0.0038526557178600275,12.499985888356917,-8.681944052568724e-14,-1.021405182655144e-13,1.349927425925522e-18
5250000,0.0038536667846188143,12.499985754574409,-8.659739592076221e-14,-1.021405182655144e-13,1.3627777951047112e-18
5300000,0.0038546271365579913,12.499985620804278,-8.681944052568724e-14,-1.021405182655144e-13,1.3756281572927064e-18
5350000,0.003855539229629195,12.499985487046526,-8.681944052568724e-14,-1.021405182655144e-13,1.3884785127143833e-18
5400000,0.0038564053807900105,12.499985353301158,-8.681944052568724e-14,-1.021405182655144e-13,1.401328861878312e-18
5450000,0.00385722779740756,12.499985219568172,-8.659739592076221e-14,-1.021405182655144e-13,1.4141792049688211e-18
5500000,0.003858008567142747,12.499985085847571,-8.659739592076221e-14,-1.0236256287043943e-13,1.4270295425003295e-18
5550000,0.0038587497016767136,12.499984952139359,-8.659739592076221e-14,-1.021405182655144e-13,1.4398798747766997e-18
5600000,0.003859453104500614,12.499984818443535,-8.659739592076221e-14,-1.021405182655144e-13,1.4527302020141665e-18
5650000,0.0038601205981116994,12.499984684760099,-8.659739592076221e-14,-1.021405182655144e-13,1.4655805245609241e-18
5700000,0.003860753907742093,12.499984551089055,-8.659739592076221e-14,-1.021405182655144e-13,1.4784308427912406e-18
5750000,0.0038613546712646866,12.499984417430403,-8.659739592076221e-14,-1.021405182655144e-13,1.4912811568620953e-18
5800000,0.003861924456001705,12.499984283784142,-8.659739592076221e-14,-1.021405182655144e-13,1.5041314670818006e-18
5850000,0.0038624647404622483,12.499984150150276,-8.659739592076221e-14,-1.0236256287043943e-13,1.5169817737627852e-18
5900000,0.003862976962413091,12.499984016528803,-8.681944052568724e-14,-1.021405182655144e-13,1.5298320770210565e-18
5950000,0.0038634624635741745,12.499983882919725,-8.659739592076221e-14,-1.021405182655144e-13,1.5426823770875798e-18
6000000,0.0038639225239018842,12.499983749323043,-8.681944052568724e-14,-1.021405182655144e-13,1.5555326742538868e-18
6050000,0.0038643583688868473,12.499983615738758,-8.659739592076221e-14,-1.021405182655144e-13,1.5683829686810344e-18
6100000,0.0038647711691786654,12.499983482166868,-8.659739592076221e-14,-1.021405182655144e-13,1.5812332605459472e-18
6150000,0.0038651620246881466,12.499983348607376,-8.659739592076221e-14,-1.0236256287043943e-13,1.5940835501223948e-18
6200000,0.0038655320037044205,12.499983215060281,-8.659739592076221e-14,-1.021405182655144e-13,1.6069338374330745e-18
6250000,0.0038658820927360065,12.499983081525583,-8.659739592076221e-14,-1.021405182655144e-13,1.619784122695501e-18
6300000,0.0038662132549175917,12.499982948003282,-8.659739592076221e-14,-1.021405182655144e-13,1.6326344061563028e-18
6350000,0.003866526402687186,12.499982814493379,-8.659739592076221e-14,-1.021405182655144e-13,1.6454846878209661e-18
6400000,0.0038668223992452946,12.499982680995872,-8.659739592076221e-14,-1.021405182655144e-13,1.6583349680508975e-18
6450000,0.0038671020728642965,12.499982547510765,-8.681944052568724e-14,-1.021405182655144e-13,1.671185246618996e-18
6500000,0.0038673662020994905,12.499982414038055,-8.659739592076221e-14,-1.021405182655144e-13,1.6840355239903634e-18
6550000,0.0038676155467671594,12.499982280577742,-8.681944052568724e-14,-1.021405182655144e-13,1.6968858001394653e-18
6600000,0.0038678508046656756,12.499982147129826,-8.659739592076221e-14,-1.021405182655144e-13,1.7097360752733279e-18
6650000,0.003868072662193527,12.499982013694305,-8.681944052568724e-14,-1.021405182655144e-13,1.7225863493890623e-18
6700000,0.0038682817508072787,12.499981880271182,-8.659739592076221e-14,-1.0191847366058937e-13,1.7354366227733627e-18
6750000,0.0038684787038339385,12.499981746860456,-8.659739592076221e-14,-1.0191847366058937e-13,1.748286895314728e-18
6800000,0.003868664084667261,12.499981613462126,-8.659739592076221e-14,-1.021405182655144e-13,1.761137167234798e-18
6850000,0.0038688384568975375,12.49998148007619,-8.659739592076221e-14,-1.021405182655144e-13,1.7739874385764005e-18
6900000,0.0038690023614188405,12.49998134670265,-8.659739592076221e-14,-1.021405182655144e-13,1.78683770952878e-18
6950000,0.003869156291119817,12.499981213341504,-8.659739592076221e-14,-1.0191847366058937e-13,1.7996879800900088e-18
7000000,0.0038693007307678048,12.499981079992752,-8.659739592076221e-14,-1.021405182655144e-13,1.8125382503316756e-18
7050000,0.003869436134034325,12.499980946656393,-8.659739592076221e-14,-1.0191847366058937e-13,1.825388520272572e-18
7100000,0.0038695629394256883,12.499980813332428,-8.659739592076221e-14,-1.021405182655144e-13,1.8382387900043398e-18
7150000,0.003869681549597833,12.499980680020855,-8.659739592076221e-14,-1.021405182655144e-13,1.85108905976433e-18
7200000,0.0038697923681304414,12.499980546721673,-8.681944052568724e-14,-1.021405182655144e-13,1.86393932936283e-18
7250000,0.003869895768750035,12.499980413434882,-8.659739592076221e-14,-1.021405182655144e-13,1.876789599037719e-18
7300000,0.003869992110658099,12.499980280160482,-8.681944052568724e-14,-1.021405182655144e-13,1.889639868762826e-18
7350000,0.003870081724147446,12.499980146898471,-8.659739592076221e-14,-1.021405182655144e-13,1.9024901386708914e-18
7400000,0.003870164937572114,12.49998001364885,-8.637535131583718e-14,-1.021405182655144e-13,1.915340408720547e-18
7450000,0.0038702420632142436,12.499979880411617,-8.659739592076221e-14,-1.021405182655144e-13,1.9281906790268366e-18
7500000,0.0038703133899541968,12.49997974718677,-8.681944052568724e-14,-1.0236256287043943e-13,1.941040949543624e-18
7550000,0.003870379199373563,12.499979613974311,-8.704148513061227e-14,-1.021405182655144e-13,1.9538912204124953e-18
7600000,0.0038704397495797718,12.499979480774238,-8.681944052568724e-14,-1.021405182655144e-13,1.966741491716695e-18
7650000,0.0038704952987346332,12.49997934758655,-8.637535131583718e-14,-1.021405182655144e-13,1.979591763343837e-18
7700000,0.0038705460885230655,12.499979214411246,-8.659739592076221e-14,-1.021405182655144e-13,1.9924420355140994e-18
7750000,0.0038705923527559104,12.499979081248325,-8.659739592076221e-14,-1.021405182655144e-13,2.005292308162332e-18
7800000,0.0038706342938902016,12.499978948097787,-8.681944052568724e-14,-1.021405182655144e-13,2.0181425813377394e-18
7850000,0.0038706721370437725,12.499978814959631,-8.659739592076221e-14,-1.0236256287043943e-13,2.030992855035801e-18
7900000,0.003870706074629216,12.499978681833856,-8.681944052568724e-14,-1.021405182655144e-13,2.0438431292844474e-18
7950000,0.0038707362850135033,12.49997854872046,-8.681944052568724e-14,-1.0236256287043943e-13,2.056693404303014e-18
8000000,0.0038707629563978514,12.499978415619443,-8.659739592076221e-14,-1.021405182655144e-13,2.069543679908326e-18
8050000,0.0038707862592549124,12.499978282530805,-8.681944052568724e-14,-1.021405182655144e-13,2.082393956200098e-18
8100000,0.0038708063479890114,12.499978149454543,-8.659739592076221e-14,-1.021405182655144e-13,2.095244233236132e-18
8150000,0.003870823383702865,12.499978016390658,-8.659739592076221e-14,-1.021405182655144e-13,2.1080945110259108e-18
8200000,0.0038708375156139853,12.499977883339149,-8.659739592076221e-14,-1.021405182655144e-13,2.120944789539318e-18
8250000,0.003870848874216332,12.499977750300014,-8.681944052568724e-14,-1.021405182655144e-13,2.133795068918789e-18
8300000,0.0038708576124292468,12.499977617273252,-8.659739592076221e-14,-1.021405182655144e-13,2.1466453489783135e-18
8350000,0.0038708638291686513,12.499977484258864,-8.659739592076221e-14,-1.021405182655144e-13,2.1594956299562097e-18
