Timestep (s),Sum Voltage (V),Carry Out Voltage (V),Sum Error Rate (Dimless),Carry Out Error Rate (Dimless),Energy Dissipation (J)
0,0.00018585113844837308,12.499999820455539,1.0,-1.0236256287043943e-13,1.511572189024391e-18
50000,0.00036273584969483526,12.499999640911879,1.0,-1.021405182655144e-13,2.994122050385507e-18
100000,0.0005310883673175929,12.499999461369784,1.0,-1.0236256287043943e-13,4.4490135334320626e-18
150000,0.0006913217556585031,12.49999928182998,1.0,-1.0236256287043943e-13,5.877531573769224e-18
200000,0.0008438289511999628,12.499999102293158,1.0,-1.021405182655144e-13,7.280887274492576e-18
250000,0.0009889837416547458,12.499998922759975,1.0,-1.021405182655144e-13,8.660222714915655e-18
300000,0.0011271417475749099,12.499998743231057,1.0,-1.021405182655144e-13,1.001661541197952e-17
350000,0.0012586412653624892,12.499998563707,1.0,-1.0236256287043943e-13,1.1351082463571834e-17
400000,0.001383804159683315,12.499998384188373,1.0,-1.0236256287043943e-13,1.266458439840359e-17
450000,0.0015029366577798764,12.499998204675716,1.0,-1.021405182655144e-13,1.395802875614931e-17
500000,0.0016163300976969515,12.49999802516954,1.0,-1.0236256287043943e-13,1.5232273419323924e-17
550000,0.0017242617067920636,12.499997845670338,1.0,-1.0236256287043943e-13,1.6488129715770256e-17
600000,0.0018269952452014803,12.499997666178574,1.0,-1.021405182655144e-13,1.7726365310346266e-17
650000,0.001924781686144666,12.499997486694692,1.0,-1.0236256287043943e-13,1.8947706901605433e-17
700000,0.002017859827029015,12.499997307219113,1.0,-1.0236256287043943e-13,2.0152842739156216e-17
750000,0.0021064568929366535,12.49999712775224,1.0,-1.021405182655144e-13,2.134242497386935e-17
800000,0.002190789113392478,12.499996948294452,1.0,-1.021405182655144e-13,2.2517071855707985e-17
850000,0.0022710622481917657,12.499996768846117,1.0,-1.0236256287043943e-13,2.3677369789334248e-17
900000,0.002347472087219096,12.49999658940758,1.0,-1.0236256287043943e-13,2.4823875258795312e-17
950000,0.002420204951730955,12.49999640997917,1.0,-1.0236256287043943e-13,2.5957116630380753e-17
1000000,0.0024894381645754896,12.499996230561202,1.0,-1.021405182655144e-13,2.7077595843455977e-17
1050000,0.0025553404495015056,12.499996051153973,1.0,-1.021405182655144e-13,2.818578999797462e-17
1100000,0.0026180723776485122,12.499995871757768,1.0,-1.0236256287043943e-13,2.9282152844658234e-17
1150000,0.0026777867789012466,12.499995692372858,1.0,-1.0236256287043943e-13,3.0367116186507275e-17
1200000,0.0027346290700451218,12.499995512999499,1.0,-1.021405182655144e-13,3.144109119846758e-17
1250000,0.0027887376688690633,12.499995333637937,1.0,-1.021405182655144e-13,3.250446966912648e-17
1300000,0.0028402442869751984,12.499995154288406,1.0,-1.021405182655144e-13,3.355762517287717e-17
1350000,0.0028892742868499278,12.499994974951127,1.0,-1.0236256287043943e-13,3.460091417638085e-17
1400000,0.0029359469795686827,12.49999479562631,1.0,-1.0236256287043943e-13,3.563467708398538e-17
1450000,0.0029803759173797867,12.49999461631416,1.0,-1.021405182655144e-13,3.665923922718274e-17
1500000,0.003022669165914185,12.499994437014864,1.0,-1.021405182655144e-13,3.76749118027838e-17
1550000,0.0030629295792196495,12.499994257728606,1.0,-1.021405182655144e-13,3.8681992762858905e-17
1600000,0.0031012550619526945,12.499994078455558,1.0,-1.021405182655144e-13,3.968076766139616e-17
1650000,0.003137738769454634,12.499993899195886,1.0,-1.021405182655144e-13,4.067151046018957e-17
1700000,0.0031724693958597363,12.499993719949746,1.0,-1.021405182655144e-13,4.165448429839185e-17
1750000,0.003205531332765067,12.499993540717288,1.0,-1.021405182655144e-13,4.2629942228541167e-17
1800000,0.0032370049240482775,12.499993361498653,1.0,-1.0236256287043943e-13,4.3598127922606266e-17
1850000,0.0032669666254267777,12.499993182293977,1.0,-1.021405182655144e-13,4.4559276351324744e-17
1900000,0.0032954892176032865,12.49999300310339,1.0,-1.021405182655144e-13,4.551361443920707e-17
1950000,0.003322641963124096,12.49999282392701,1.0,-1.021405182655144e-13,4.6461361700378535e-17
2000000,0.0033484908067154436,12.499992644764959,1.0,-1.021405182655144e-13,4.7402730856197405e-17
2050000,0.0033730984835261984,12.499992465617343,1.0,-1.021405182655144e-13,4.833792844015799e-17
2100000,0.003396524734595849,12.49999228648427,1.0,-1.021405182655144e-13,4.926715539260972e-17
2150000,0.0034188264116286862,12.49999210736584,1.0,-1.021405182655144e-13,5.0190607650334563e-17
2200000,0.003440057634043638,12.499991928262146,1.0,-1.0236256287043943e-13,5.110847673436601e-17
2250000,0.003460269905078089,12.499991749173281,1.0,-1.021405182655144e-13,5.202095034226404e-17
2300000,0.003479512256952769,12.499991570099331,1.0,-1.0236256287043943e-13,5.2928212950494957e-17
2350000,0.003497831351577083,12.499991391040377,1.0,-1.021405182655144e-13,5.3830446433785157e-17
2400000,0.003515271612099195,12.499991211996496,1.0,-1.021405182655144e-13,5.472783071027084e-17
2450000,0.003531875325338732,12.499991032967765,1.0,-1.021405182655144e-13,5.562054442222779e-17
2500000,0.0035476827252970797,12.499990853954253,1.0,-1.021405182655144e-13,5.650876566593174e-17
2550000,0.003562732128419517,12.499990674956027,1.0,-1.021405182655144e-13,5.739267278656655e-17
2600000,0.003577059998108936,12.499990495973153,1.0,-1.021405182655144e-13,5.827244525820051e-17
2650000,0.003590701041156002,12.499990317005688,1.0,-1.0236256287043943e-13,5.914826467659601e-17
2700000,0.0036036882942444043,12.499990138053693,1.0,-1.0236256287043943e-13,6.002031589951835e-17
2750000,0.00361605321506735,12.49998995911722,1.0,-1.021405182655144e-13,6.088878838114818e-17
2800000,0.00362782573210133,12.499989780196325,1.0,-1.021405182655144e-13,6.175387776436697e-17
2850000,0.0036390343390479106,12.499989601291054,1.0,-1.021405182655144e-13,6.26157878167932e-17
2900000,0.0036497061561812207,12.499989422401454,1.0,-1.0236256287043943e-13,6.347473283417921e-17
2950000,0.0036598670031925767,12.49998924352757,1.0,-1.021405182655144e-13,6.43309406810707e-17
3000000,0.0036695414587288276,12.499989064669448,1.0,-1.021405182655144e-13,6.518465672030092e-17
3050000,0.0036787529144213195,12.499988885827126,1.0,-1.021405182655144e-13,6.603614900121688e-17
3100000,0.0036875236297156362,12.499988707000641,1.0,-1.0236256287043943e-13,6.688571526853764e-17
3150000,0.0036958748173420803,12.499988528190032,1.0,-1.0236256287043943e-13,6.773369266662783e-17
3200000,0.003703826643401358,12.499988349395332,1.0,-1.021405182655144e-13,6.858021397761437e-17
3250000,0.0037113983154094562,12.499988170616575,1.0,-1.021405182655144e-13,6.942360574440053e-17
3300000,0.0037186081173962915,12.499987991853793,1.0,-1.021405182655144e-13,7.026244996082179e-17
3350000,0.0037254734471969184,12.499987813107014,1.0,-1.021405182655144e-13,7.109713010475162e-17
3400000,0.003732010869981426,12.499987634376266,1.0,-1.021405182655144e-13,7.192798095371455e-17
3450000,0.003738236150256308,12.499987455661577,1.0,-1.0236256287043943e-13,7.275530158046621e-17
3500000,0.0037441643072774803,12.49998727696297,1.0,-1.021405182655144e-13,7.357936449251087e-17
3550000,0.0037498096307377053,12.499987098280473,1.0,-1.021405182655144e-13,7.440042222767047e-17
3600000,0.00375518571679292,12.499986919614106,1.0,-1.021405182655144e-13,7.521871221959064e-17
3650000,0.003760305508690343,12.499986740963893,1.0,-1.0191847366058937e-13,7.603446045980074e-17
3700000,0.0037651813350631836,12.499986562329852,1.0,-1.021405182655144e-13,7.684788430274292e-17
3750000,0.0037698249228463893,12.499986383712004,1.0,-1.021405182655144e-13,7.76591946471729e-17
3800000,0.0037742474451979316,12.499986205110368,1.0,-1.021405182655144e-13,7.846859765653611e-17
3850000,0.003778459525178885,12.499986026524962,1.0,-1.021405182655144e-13,7.927629613107185e-17
3900000,0.0037824712844519927,12.4999858479558,1.0,-1.0236256287043943e-13,8.008249061315553e-17
3950000,0.0037862923593374297,12.4999856694029,1.0,-1.0236256287043943e-13,8.088738028398863e-17
4000000,0.003789931906561474,12.499985490866276,1.0,-1.021405182655144e-13,8.169116369441146e-17
4050000,0.0037933986634404093,12.499985312345943,1.0,-1.021405182655144e-13,8.249403936322548e-17
4100000,0.0037967009336582246,12.499985133841914,1.0,-1.0236256287043943e-13,8.329620626426016e-17
4150000,0.0037998466334680345,12.499984955354202,1.0,-1.0236256287043943e-13,8.40978642221141e-17
4200000,0.0038028432856962013,12.499984776882819,1.0,-1.021405182655144e-13,8.489921422889877e-17
4250000,0.0038056980584139748,12.499984598427776,1.0,-1.021405182655144e-13,8.570045869221257e-17
4300000,0.003808417769895789,12.499984419989083,1.0,-1.021405182655144e-13,8.650180162256968e-17
4350000,0.0038110089149176064,12.499984241566752,1.0,-1.021405182655144e-13,8.730344876518503e-17
4400000,0.0038134776764037594,12.49998406316079,1.0,-1.021405182655144e-13,8.810560768157297e-17
4450000,0.0038158299347138213,12.499983884771208,1.0,-1.021405182655144e-13,8.890848778310941e-17
4500000,0.0038180713002161685,12.499983706398014,1.0,-1.021405182655144e-13,8.971230031985201e-17
4550000,0.0038202070968979597,12.499983528041216,1.0,-1.021405182655144e-13,9.051725832558379e-17
4600000,0.003822242400171645,12.499983349700823,1.0,-1.021405182655144e-13,9.132357652089344e-17
4650000,0.003824182048485408,12.49998317137684,1.0,-1.021405182655144e-13,9.213147117474877e-17
4700000,0.003826030627103086,12.499982993069274,1.0,-1.0236256287043943e-13,9.294115992532326e-17
4750000,0.0038277925242781517,12.499982814778132,1.0,-1.021405182655144e-13,9.375286156099851e-17
4800000,0.003829471905984549,12.49998263650342,1.0,-1.021405182655144e-13,9.456679576121423e-17
4850000,0.003831072736619721,12.499982458245144,1.0,-1.021405182655144e-13,9.538318279762647e-17
4900000,0.003832598803158307,12.499982280003309,1.0,-1.021405182655144e-13,9.620224319651827e-17
4950000,0.0038340536871065,12.49998210177792,1.0,-1.021405182655144e-13,9.702419736283753e-17
5000000,0.003835440812818705,12.499981923568981,1.0,-1.021405182655144e-13,9.784926516609724e-17
5050000,0.0038367634505852197,12.499981745376497,1.0,-1.0236256287043943e-13,9.867766548860723e-17
5100000,0.003838024684631595,12.499981567200471,1.0,-1.021405182655144e-13,9.950961573928462e-17
5150000,0.0038392274774374153,12.499981389040908,1.0,-1.021405182655144e-13,1.0034533133181338e-16
5200000,0.0038403746300891693,12.499981210897811,1.0,-1.0236256287043943e-13,1.0118502513017081e-16
5250000,0.0038414688210551226,12.499981032771183,1.0,-1.021405182655144e-13,1.0202890686353949e-16
5300000,0.003842512598449921,12.499980854661029,1.0,-1.021405182655144e-13,1.028771825123297e-16
5350000,0.0038435083830172657,12.499980676567349,1.0,-1.021405182655144e-13,1.0373005366953912e-16
5400000,0.003844458481230094,12.499980498490148,1.0,-1.021405182655144e-13,1.0458771687821079e-16
5450000,0.00384536509913889,12.499980320429426,1.0,-1.021405182655144e-13,1.0545036295083711e-16
5500000,0.003846230315413339,12.499980142385187,1.0,-1.021405182655144e-13,1.0631817627337845e-16
5550000,0.003847056124425566,12.499979964357433,1.0,-1.021405182655144e-13,1.0719133409828179e-16
5600000,0.003847844413630051,12.499979786346165,1.0,-1.021405182655144e-13,1.080700058318961e-16
5650000,0.0038485969980013796,12.499979608351385,1.0,-1.021405182655144e-13,1.0895435231999993e-16
5700000,0.00384931559522231,12.499979430373095,1.0,-1.0191847366058937e-13,1.0984452513807408e-16
5750000,0.003850001825977084,12.499979252411297,1.0,-1.021405182655144e-13,1.1074066589104209e-16
5800000,0.003850657255016136,12.49997907446599,1.0,-1.021405182655144e-13,1.116429055282962e-16
5850000,0.0038512833585955027,12.499978896537177,1.0,-1.021405182655144e-13,1.1255136368022205e-16
5900000,0.0038518815407578527,12.49997871862486,1.0,-1.021405182655144e-13,1.1346614802230431e-16
5950000,0.0038524531627011174,12.499978540729037,1.0,-1.021405182655144e-13,1.1438735367213744e-16
6000000,0.003852999487599586,12.499978362849712,1.0,-1.0191847366058937e-13,1.1531506262633175e-16
6050000,0.0038535217342600494,12.499978184986883,1.0,-1.0191847366058937e-13,1.1624934324233686e-16
6100000,0.003854021063096656,12.499978007140552,1.0,-1.021405182655144e-13,1.171902497718723e-16
6150000,0.0038544985635052538,12.499977829310717,1.0,-1.021405182655144e-13,1.1813782195021654e-16
6200000,0.003854955303103269,12.499977651497382,1.0,-1.021405182655144e-13,1.1909208464845932e-16
6250000,0.0038553922719447306,12.499977473700545,1.0,-1.0236256287043943e-13,1.2005304759208286e-16
6300000,0.003855810417203952,12.499977295920207,1.0,-1.021405182655144e-13,1.2102070515155326e-16
6350000,0.003856210646075087,12.499977118156368,1.0,-1.021405182655144e-13,1.21995036210321e-16
6400000,0.003856593817421446,12.499976940409027,1.0,-1.021405182655144e-13,1.2297600411375028e-16
6450000,0.0038569607479699564,12.499976762678186,1.0,-1.021405182655144e-13,1.2396355670527892e-16
6500000,0.0038573122217699977,12.499976584963843,1.0,-1.021405182655144e-13,1.2495761653659363e-16
6550000,0.003857648988963109,12.499976407265997,1.0,-1.021405182655144e-13,1.259580640881555e-16
6600000,0.0038579717549442932,12.49997622958465,1.0,-1.021405182655144e-13,1.2696480262572556e-16
6650000,0.0038582811843813794,12.499976051919802,1.0,-1.021405182655144e-13,1.2797771971447052e-16
6700000,0.0038585779223126297,12.49997587427145,1.0,-1.021405182655144e-13,1.2899668769794786e-16
6750000,0.003858862573303199,12.499975696639597,1.0,-1.021405182655144e-13,1.3002156421128647e-16
6800000,0.0038591357275677023,12.49997551902424,1.0,-1.021405182655144e-13,1.3105219273512843e-16
6850000,0.0038593979232417128,12.499975341425378,1.0,-1.021405182655144e-13,1.3208840319136673e-16
6900000,0.003859649702102825,12.499975163843011,1.0,-1.021405182655144e-13,1.3313001258182152e-16
6950000,0.0038598915571383292,12.49997498627714,1.0,-1.021405182655144e-13,1.3417682566829623e-16
7000000,0.0038601239744592343,12.499974808727762,1.0,-1.0191847366058937e-13,1.3522863568816644e-16
7050000,0.0038603474017579894,12.499974631194878,1.0,-1.021405182655144e-13,1.3628522510339135e-16
7100000,0.003860562270745654,12.499974453678487,1.0,-1.0191847366058937e-13,1.3734636637854337e-16
7150000,0.0038607689943003006,12.499974276178587,1.0,-1.021405182655144e-13,1.3841182277933846e-16
7200000,0.0038609679564678887,12.49997409869518,1.0,-1.021405182655144e-13,1.3948134918958434e-16
7250000,0.0038611595396372453,12.499973921228262,1.0,-1.021405182655144e-13,1.4055469293938276e-16
7300000,0.003861344090885866,12.499973743777833,1.0,-1.021405182655144e-13,1.4163159463810319e-16
7350000,0.0038615219475909555,12.499973566343893,1.0,-1.021405182655144e-13,1.4271178900777049e-16
7400000,0.0038616934389949092,12.49997338892644,1.0,-1.021405182655144e-13,1.4379500571067074e-16
7450000,0.0038618588673303405,12.499973211525473,1.0,-1.021405182655144e-13,1.448809701662179e-16
7500000,0.0038620185269720815,12.499973034140993,1.0,-1.021405182655144e-13,1.4596940435286194e-16
7550000,0.003862172690751491,12.499972856772997,1.0,-1.021405182655144e-13,1.4706002758884912e-16
7600000,0.0038623216228688656,12.499972679421484,1.0,-1.021405182655144e-13,1.4815255728956071e-16
7650000,0.0038624655746737524,12.499972502086452,1.0,-1.021405182655144e-13,1.4924670969733213e-16
7700000,0.003862604791071443,12.499972324767901,1.0,-1.021405182655144e-13,1.5034220057961931e-16
7750000,0.0038627394879458036,12.499972147465831,1.0,-1.021405182655144e-13,1.5143874589448325e-16
7800000,0.003862869889920044,12.49997197018024,1.0,-1.021405182655144e-13,1.5253606241977191e-16
7850000,0.003862996197911179,12.499971792911127,1.0,-1.021405182655144e-13,1.5363386834453835e-16
7900000,0.003863118610430632,12.49997161565849,1.0,-1.0236256287043943e-13,1.5473188382210473e-16
7950000,0.003863237324613905,12.499971438422328,1.0,-1.021405182655144e-13,1.558298314829373e-16
8000000,0.0038633525061896098,12.49997126120264,1.0,-1.021405182655144e-13,1.5692743690719266e-16
8050000,0.003863464328625465,12.499971083999425,1.0,-1.021405182655144e-13,1.5802442905724938e-16
8100000,0.0038635729577822186,12.499970906812681,1.0,-1.021405182655144e-13,1.591205406692985e-16
8150000,0.003863678542797407,12.499970729642408,1.0,-1.021405182655144e-13,1.6021550860589946e-16
8200000,0.003863781226873941,12.499970552488604,1.0,-1.021405182655144e-13,1.6130907416959524e-16
8250000,0.0038638811495847842,12.499970375351268,1.0,-1.021405182655144e-13,1.6240098337774328e-16
8300000,0.0038639784495579947,12.499970198230399,1.0,-1.021405182655144e-13,1.6349098720189562e-16
8350000,0.003864073247840549,12.499970021125995,1.0,-1.0191847366058937e-13,1.6457884177147437e-16
8400000,0.003864165668830634,12.499969844038054,1.0,-1.0236256287043943e-13,1.6566430854383485e-16
8450000,0.0038642558215085127,12.499969666966576,1.0,-1.021405182655144e-13,1.66747154442389e-16
8500000,0.0038643438161566164,12.499969489911559,1.0,-1.021405182655144e-13,1.6782715196460257e-16
8550000,0.003864429764653488,12.499969312873,1.0,-1.021405182655144e-13,1.6890407926196087e-16
8600000,0.0038645137500113273,12.4999691358509,1.0,-1.021405182655144e-13,1.6997772019331808e-16
8650000,0.0038645958738456857,12.499968958845258,1.0,-1.021405182655144e-13,1.7104786435338805e-16
8700000,0.003864676223510528,12.499968781856072,1.0,-1.021405182655144e-13,1.7211430707938818e-16
8750000,0.003864754892712314,12.499968604883339,1.0,-1.0191847366058937e-13,1.7317684943643544e-16
8800000,0.0038648319564349655,12.49996842792706,1.0,-1.021405182655144e-13,1.7423529818418555e-16
8850000,0.0038649074791149373,12.499968250987232,1.0,-1.021405182655144e-13,1.7528946572642018e-16
8900000,0.0038649815476868876,12.499968074063853,1.0,-1.021405182655144e-13,1.7633917004551629e-16
8950000,0.0038650542362639907,12.499967897156923,1.0,-1.021405182655144e-13,1.7738423462301098e-16
9000000,0.003865125607946461,12.49996772026644,1.0,-1.0191847366058937e-13,1.7842448834849482e-16
9050000,0.0038651957198616847,12.499967543392403,1.0,-1.021405182655144e-13,1.794597654178246e-16
9100000,0.0038652646410539423,12.49996736653481,1.0,-1.0191847366058937e-13,1.8048990522244563e-16
9150000,0.0038653324155229797,12.49996718969366,1.0,-1.021405182655144e-13,1.8151475223140992e-16
9200000,0.003865399108052426,12.49996701286895,1.0,-1.0191847366058937e-13,1.8253415586676348e-16
9250000,0.0038654647683051386,12.49996683606068,1.0,-1.021405182655144e-13,1.8354797037445424e-16
9300000,0.003865529446550623,12.49996665926885,1.0,-1.021405182655144e-13,1.8455605469073207e-16
9350000,0.0038655931846088886,12.499966482493456,1.0,-1.021405182655144e-13,1.8555827230657458e-16
9400000,0.003865656038134385,12.499966305734496,1.0,-1.021405182655144e-13,1.8655449112979628e-16
9450000,0.0038657180416513904,12.499966128991971,1.0,-1.0191847366058937e-13,1.875445833464943e-16
9500000,0.0038657792375140633,12.499965952265878,1.0,-1.021405182655144e-13,1.885284252827871e-16
9550000,0.003865839659806965,12.499965775556216,1.0,-1.021405182655144e-13,1.8950589726734667e-16
9600000,0.003865899353704996,12.499965598862984,1.0,-1.021405182655144e-13,1.9047688349499456e-16
9650000,0.0038659583525122694,12.499965422186179,1.0,-1.021405182655144e-13,1.9144127189359405e-16
9700000,0.0038660166780926267,12.4999652455258,1.0,-1.021405182655144e-13,1.9239895399298437e-16
9750000,0.003866074371091168,12.499965068881846,1.0,-1.021405182655144e-13,1.933498247977332e-16
9800000,0.0038661314617888503,12.499964892254315,1.0,-1.0191847366058937e-13,1.9429378266395698e-16
9850000,0.003866187984078063,12.499964715643205,1.0,-1.021405182655144e-13,1.9523072918043652e-16
9900000,0.0038662439600751636,12.499964539048516,1.0,-1.0191847366058937e-13,1.9616056890900383e-16
9950000,0.0038662994126046593,12.499964362470246,1.0,-1.0191847366058937e-13,1.9708320969192958e-16
